0.078157,0.21169,0.084111,0.018634,0.017951,0.033404,0.042036,0.086789,3
0.082508,0.22473,0.0912,0.014314,0.018291,0.040373,0.051549,0.089868,3
0.086384,0.23618,0.09744,0.010765,0.018603,0.046388,0.05947,0.092477,3
0.089806,0.24612,0.10287,0.0079465,0.018895,0.051502,0.065904,0.094646,3
0.092798,0.25463,0.10752,0.0058215,0.019174,0.05577,0.070954,0.096403,3
0.095381,0.2618,0.11144,0.0043515,0.019447,0.059245,0.074725,0.097778,3
0.097577,0.26768,0.11466,0.0034984,0.019722,0.061981,0.07732,0.098799,3
0.09941,0.27237,0.11721,0.003224,0.020006,0.064033,0.078844,0.099497,3
0.1009,0.27593,0.11915,0.0034902,0.020307,0.065454,0.0794,0.0999,3
0.10207,0.27845,0.12049,0.0042586,0.020631,0.066299,0.079092,0.10004,3
0.10295,0.28,0.12129,0.0054913,0.020986,0.066622,0.078024,0.099936,3
0.10355,0.28066,0.12157,0.0071499,0.02138,0.066476,0.076301,0.099629,3
0.10389,0.28051,0.12138,0.0091963,0.021819,0.065916,0.074025,0.099143,3
0.10401,0.27961,0.12076,0.011592,0.022311,0.064996,0.071302,0.098507,3
0.10392,0.27806,0.11973,0.0143,0.022863,0.06377,0.068234,0.097752,3
0.10364,0.27592,0.11834,0.017281,0.023483,0.062292,0.064926,0.096906,3
0.1032,0.27327,0.11663,0.020497,0.024178,0.060615,0.061482,0.095997,3
0.10262,0.27019,0.11463,0.023909,0.024956,0.058795,0.058006,0.095056,3
0.10192,0.26676,0.11238,0.027481,0.025823,0.056884,0.054601,0.094111,3
0.10112,0.26305,0.10992,0.031173,0.026787,0.054938,0.051372,0.093192,3
0.10025,0.25914,0.10729,0.034948,0.027855,0.05301,0.048423,0.092327,3
0.10013,0.25492,0.10478,0.039532,0.029678,0.052928,0.048539,0.090629,3
0.098812,0.24838,0.10282,0.042937,0.03083,0.052881,0.048162,0.08945,3
0.098369,0.24637,0.10001,0.04568,0.032119,0.052836,0.049148,0.091677,3
0.097931,0.24193,0.096547,0.049155,0.034641,0.052915,0.051691,0.091029,3
0.097009,0.2406,0.094328,0.052252,0.035506,0.053002,0.055615,0.091943,3
0.095185,0.24017,0.092136,0.055077,0.037865,0.053957,0.057419,0.093875,3
0.094518,0.24074,0.091325,0.05806,0.040309,0.055398,0.058911,0.095561,3
0.091466,0.23873,0.088786,0.059693,0.042385,0.054935,0.061264,0.096388,3
0.091889,0.23759,0.08605,0.061034,0.045346,0.055957,0.064725,0.096079,3
0.091689,0.23691,0.0827,0.063002,0.047059,0.056209,0.070784,0.096117,3
0.093501,0.23671,0.079997,0.063564,0.049258,0.056663,0.07776,0.097637,3
0.094585,0.24531,0.078902,0.064517,0.052006,0.055519,0.084616,0.1002,3
0.094309,0.25169,0.076815,0.065325,0.054692,0.055909,0.091106,0.099857,3
0.095376,0.25737,0.074807,0.065436,0.057599,0.055317,0.091122,0.10045,3
0.09788,0.26038,0.070296,0.063848,0.059724,0.057062,0.095195,0.10228,3
0.10126,0.26229,0.069105,0.065152,0.064496,0.058638,0.10469,0.10367,3
0.10436,0.26611,0.071475,0.066837,0.070403,0.06175,0.12028,0.1106,3
0.10692,0.26787,0.071121,0.068823,0.075697,0.0642,0.12699,0.11672,3
0.10961,0.26845,0.072121,0.069797,0.079641,0.067621,0.1427,0.12241,3
0.11118,0.26694,0.072768,0.068999,0.083894,0.071706,0.16341,0.12941,3
0.11032,0.26363,0.072338,0.068779,0.089268,0.076615,0.17427,0.13539,3
0.10944,0.26272,0.073028,0.067903,0.093323,0.08145,0.17811,0.13814,3
0.1085,0.25574,0.07146,0.065671,0.094916,0.081275,0.18498,0.13643,3
0.10818,0.24708,0.069319,0.06178,0.097247,0.087126,0.21086,0.14321,3
0.10652,0.23938,0.07011,0.063229,0.10175,0.092151,0.22612,0.15167,3
0.10486,0.22801,0.070628,0.061842,0.10379,0.097693,0.2497,0.14974,3
0.10369,0.21653,0.070979,0.066503,0.10755,0.097954,0.26163,0.15522,3
0.10097,0.20805,0.073238,0.067885,0.11141,0.10292,0.28985,0.161,3
0.09993,0.19832,0.073692,0.070177,0.11318,0.10693,0.32661,0.17807,4
0.098439,0.18551,0.074095,0.074213,0.11589,0.10996,0.35564,0.19322,4
0.095543,0.17632,0.075815,0.077079,0.11706,0.11228,0.38367,0.20795,4
0.093864,0.15705,0.074763,0.079548,0.11781,0.11908,0.41817,0.22841,4
0.094917,0.1453,0.074748,0.081686,0.12032,0.12779,0.4566,0.24582,4
0.09462,0.13684,0.076088,0.085383,0.12525,0.13433,0.51233,0.26795,4
0.096548,0.12672,0.078418,0.089056,0.12905,0.14234,0.55575,0.29275,4
0.096751,0.11195,0.07812,0.092371,0.13305,0.15205,0.60812,0.31801,4
0.096745,0.09812,0.079701,0.095446,0.1369,0.16213,0.65032,0.34579,4
0.098346,0.088223,0.081493,0.099676,0.14075,0.17267,0.70342,0.36672,4
0.098888,0.080519,0.083329,0.10557,0.14488,0.18704,0.77198,0.39627,1
0.098966,0.070077,0.084799,0.11085,0.14635,0.19729,0.82433,0.42551,1
0.099754,0.060354,0.087249,0.11699,0.15054,0.20737,0.88602,0.46207,1
0.10297,0.055611,0.089349,0.12009,0.15355,0.21923,0.95902,0.50004,1
0.10559,0.053408,0.092124,0.12466,0.15689,0.22997,1.0148,0.53098,1
0.10785,0.049192,0.094291,0.12846,0.15859,0.24087,1.0778,0.55658,1
0.11113,0.048637,0.097031,0.13168,0.1601,0.2526,1.1346,0.58866,1
0.11526,0.047558,0.096647,0.13416,0.16276,0.26208,1.1948,0.61905,1
0.11883,0.049143,0.096437,0.13691,0.16461,0.27017,1.2583,0.6437,1
0.12329,0.05209,0.095649,0.13792,0.16466,0.2779,1.3137,0.6681,1
0.12752,0.054547,0.097241,0.13864,0.16592,0.286,1.358,0.68742,1
0.13108,0.059156,0.099995,0.13898,0.16634,0.29175,1.4039,0.70178,1
0.13603,0.065066,0.10224,0.13857,0.17007,0.29528,1.4418,0.71603,1
0.13839,0.07211,0.10424,0.13803,0.17086,0.29663,1.4731,0.73189,1
0.14046,0.072182,0.10527,0.13667,0.17181,0.29933,1.4882,0.74092,1
0.14396,0.073833,0.10644,0.13462,0.17448,0.30098,1.4987,0.74822,1
0.14573,0.073406,0.10698,0.13322,0.17769,0.30449,1.5029,0.75018,1
0.14484,0.073274,0.1083,0.13256,0.18084,0.30551,1.5056,0.75403,1
0.14459,0.072432,0.10926,0.12966,0.18236,0.30445,1.4922,0.75111,1
0.14269,0.070823,0.10648,0.12559,0.18339,0.30366,1.4693,0.74319,1
0.13987,0.068176,0.10632,0.11999,0.18199,0.30074,1.4441,0.73114,1
0.13518,0.065558,0.10634,0.11427,0.18215,0.29481,1.4032,0.71404,1
0.13055,0.063111,0.1046,0.10897,0.18058,0.28888,1.3509,0.6929,1
0.12525,0.060775,0.1035,0.10274,0.17729,0.28382,1.3011,0.66949,1
0.12052,0.057537,0.10145,0.096049,0.17286,0.27378,1.26,0.64597,1
0.115,0.053947,0.099356,0.090036,0.17079,0.27084,1.2174,0.62511,1
0.1102,0.051999,0.098739,0.085507,0.16712,0.26235,1.152,0.59343,1
0.1048,0.048241,0.095478,0.07818,0.16251,0.25357,1.0991,0.56194,1
0.098812,0.043771,0.091479,0.071211,0.15741,0.2416,1.0365,0.54142,1
0.092445,0.040092,0.087463,0.064511,0.152,0.23586,0.98532,0.51465,1
0.086259,0.033763,0.082425,0.058111,0.14617,0.22447,0.92351,0.493,1
0.079314,0.02982,0.078134,0.052199,0.14162,0.21297,0.85345,0.46347,1
0.069168,0.022792,0.072692,0.045313,0.13542,0.20255,0.79412,0.43731,1
0.064267,0.018735,0.066735,0.040041,0.13124,0.19515,0.73958,0.41531,4
0.059673,0.017322,0.06144,0.03555,0.12856,0.18463,0.68559,0.38755,4
0.054363,0.015746,0.056988,0.030535,0.12378,0.17226,0.63488,0.36763,4
0.051458,0.014878,0.052385,0.025798,0.11659,0.1642,0.57426,0.34584,4
0.04725,0.01451,0.047824,0.021177,0.11058,0.1557,0.53042,0.32498,4
0.043885,0.014074,0.043952,0.019906,0.10471,0.14725,0.48236,0.3062,4
0.04384,0.014713,0.037989,0.017434,0.096891,0.13982,0.4512,0.2857,4
0.041222,0.014811,0.033649,0.01486,0.090056,0.133,0.41927,0.27375,4
0.041263,0.01558,0.029235,0.012718,0.08355,0.121,0.3776,0.25946,4
0.041566,0.016081,0.024048,0.011011,0.077788,0.11181,0.35231,0.24754,4
0.043536,0.017623,0.019829,0.0085423,0.070857,0.10578,0.32993,0.22901,4
0.043766,0.017043,0.014126,0.0077973,0.063911,0.097766,0.29445,0.20929,4
0.047168,0.019256,0.0078209,0.0063042,0.056877,0.090657,0.27946,0.19472,4
0.048,0.019509,0.0019527,0.005394,0.051674,0.083314,0.26136,0.18597,2
0.049468,0.021128,-0.0029456,0.0043735,0.045857,0.07476,0.25093,0.17314,2
0.051759,0.023388,-0.005073,0.0038474,0.040604,0.070074,0.23667,0.15845,2
0.053136,0.029318,-0.0038569,0.0021216,0.03601,0.064968,0.21683,0.14674,2
0.055095,0.033823,-0.0013082,0.0013828,0.033445,0.059733,0.20112,0.13126,2
0.058297,0.041512,-0.00046968,0.00089182,0.030776,0.052763,0.19213,0.1217,2
0.061689,0.047468,0.0016676,0.00062374,0.029359,0.047754,0.17786,0.1167,2
0.063758,0.055072,0.004881,0.00054881,0.026295,0.044662,0.16303,0.11388,2
0.067005,0.064995,0.0078835,0.00078171,0.026014,0.041715,0.14253,0.10184,2
0.069783,0.074363,0.01214,0.00056306,0.026746,0.040687,0.13085,0.095277,2
0.073159,0.081167,0.015308,0.00087002,0.02649,0.040875,0.11671,0.088102,2
0.075996,0.0869,0.018455,0.00065814,0.024877,0.038497,0.11009,0.088791,2
0.079642,0.096103,0.024042,0.0015353,0.024693,0.035161,0.096893,0.083753,2
0.080882,0.10311,0.028269,0.0017734,0.024709,0.037212,0.090913,0.084024,2
0.083723,0.11099,0.034996,0.0017929,0.024182,0.037121,0.079941,0.083302,2
0.0839,0.1212,0.041945,0.0018813,0.024798,0.038849,0.073147,0.086989,2
0.087926,0.13058,0.046876,0.0025663,0.025421,0.04354,0.068974,0.095692,2
0.091226,0.13604,0.053036,0.003625,0.02558,0.047814,0.068534,0.10252,2
0.09523,0.14651,0.059153,0.0045192,0.026911,0.05293,0.071453,0.10941,2
0.097998,0.15758,0.066335,0.0052379,0.029328,0.062555,0.073233,0.11608,3
0.10134,0.17413,0.075893,0.0058244,0.030694,0.069878,0.075459,0.12649,3
0.10414,0.1874,0.083321,0.0070996,0.034212,0.07874,0.080812,0.13865,3
0.10609,0.20209,0.092406,0.0076042,0.03501,0.083014,0.083928,0.1454,3
0.10937,0.21675,0.10099,0.0094722,0.038983,0.094036,0.089762,0.15714,3
0.11194,0.23165,0.1095,0.012203,0.04361,0.10533,0.09938,0.17363,3
0.11658,0.25163,0.11922,0.01433,0.047717,0.11737,0.11021,0.18943,3
0.11826,0.26183,0.1249,0.015896,0.051074,0.12848,0.12008,0.20292,3
0.12393,0.27777,0.13334,0.018318,0.056091,0.1424,0.12947,0.2162,3
0.12945,0.29183,0.14004,0.019879,0.059312,0.15258,0.13929,0.22606,3
0.13276,0.30052,0.14532,0.021382,0.062541,0.16253,0.14912,0.23684,3
0.13573,0.31005,0.15035,0.022761,0.064278,0.1713,0.15659,0.24439,3
0.13831,0.32212,0.15452,0.024298,0.067942,0.18159,0.16403,0.25174,3
0.14036,0.32907,0.15855,0.025282,0.071104,0.19225,0.1699,0.25859,3
0.14225,0.33061,0.1594,0.024077,0.072597,0.19971,0.17514,0.26211,3
0.14192,0.33268,0.1597,0.019811,0.07425,0.20634,0.17985,0.26427,3
0.14481,0.33832,0.16166,0.019934,0.075574,0.21108,0.18189,0.26469,3
0.14501,0.3363,0.16182,0.022015,0.076673,0.21466,0.18387,0.26405,3
0.14698,0.33838,0.16123,0.019168,0.0769,0.21692,0.18483,0.26189,3
0.14657,0.34247,0.16105,0.022141,0.077179,0.21721,0.18336,0.25777,3
0.14603,0.34442,0.16075,0.024972,0.077254,0.21502,0.18148,0.25155,3
0.14641,0.34643,0.16149,0.028951,0.076573,0.21065,0.17881,0.24506,3
0.14553,0.34498,0.16063,0.028786,0.076076,0.20598,0.17512,0.23605,3
0.14446,0.34473,0.16097,0.031097,0.075219,0.19975,0.16957,0.22499,3
0.14262,0.34319,0.15886,0.035634,0.073722,0.19102,0.1615,0.2125,3
0.14077,0.33646,0.15553,0.039699,0.07139,0.18099,0.15355,0.1998,3
0.13788,0.3295,0.15216,0.043372,0.069142,0.16959,0.14302,0.18925,3
0.13461,0.31872,0.1481,0.046854,0.067419,0.15918,0.13279,0.17617,3
0.12937,0.30765,0.14212,0.049861,0.064339,0.14672,0.1224,0.16238,3
0.12549,0.29312,0.13471,0.051924,0.061141,0.13413,0.11351,0.14587,3
0.12052,0.27547,0.1283,0.054058,0.059497,0.12353,0.10411,0.13583,3
0.11542,0.2569,0.11926,0.056187,0.05645,0.11136,0.096752,0.12536,3
0.10887,0.23918,0.11175,0.057734,0.052829,0.097939,0.086693,0.11743,3
0.10285,0.22327,0.1046,0.058525,0.050553,0.085908,0.078837,0.10753,3
0.09631,0.2041,0.096758,0.058446,0.04859,0.0776,0.070597,0.10037,3
0.091526,0.18757,0.089279,0.059134,0.047654,0.067031,0.063942,0.095568,3
0.086588,0.17141,0.082307,0.059581,0.046199,0.05879,0.058684,0.092886,3
0.083817,0.15432,0.076187,0.061471,0.047218,0.051842,0.057029,0.08842,3
0.079065,0.13883,0.070542,0.061516,0.046448,0.045177,0.059376,0.080717,2
0.074314,0.12977,0.065773,0.061551,0.047412,0.040862,0.058597,0.07483,2
0.068943,0.11883,0.062658,0.061271,0.04912,0.036644,0.057905,0.070491,2
0.066493,0.10984,0.059383,0.062321,0.051519,0.034551,0.059944,0.067612,2
0.061955,0.09676,0.054263,0.061786,0.05414,0.033154,0.062895,0.059917,2
0.058422,0.086479,0.051061,0.061881,0.056832,0.032775,0.069125,0.057445,2
0.055321,0.074656,0.046035,0.061404,0.061017,0.038319,0.079684,0.059427,2
0.052687,0.06491,0.042841,0.061113,0.065849,0.039,0.086139,0.05812,2
0.04993,0.053998,0.039166,0.05943,0.069665,0.041579,0.091029,0.057018,2
0.047019,0.039877,0.033663,0.057755,0.073705,0.04393,0.098228,0.055417,2
0.045786,0.03469,0.032777,0.056622,0.077918,0.048285,0.10672,0.05393,2
0.043728,0.026527,0.029145,0.054571,0.078819,0.046609,0.1062,0.051378,2
0.042305,0.019356,0.027032,0.051635,0.081971,0.050433,0.11328,0.048926,2
0.04051,0.015563,0.025959,0.048553,0.083026,0.054415,0.11536,0.044658,2
0.0373,0.011284,0.025143,0.046652,0.086242,0.058838,0.11625,0.045489,2
0.036548,0.0041464,0.023537,0.041003,0.08698,0.064636,0.12592,0.048178,2
0.035971,-0.00021034,0.022057,0.037623,0.090067,0.071127,0.14273,0.049545,2
0.036828,0.0018725,0.022648,0.03591,0.093603,0.076773,0.16093,0.057188,2
0.038218,0.0044781,0.025395,0.039576,0.099609,0.083715,0.17204,0.071496,2
0.039984,0.0041762,0.026496,0.044319,0.10564,0.092051,0.18757,0.092546,2
0.042619,0.0096766,0.02812,0.045655,0.11001,0.096075,0.20259,0.10958,2
0.044281,0.016016,0.032154,0.053114,0.11389,0.10096,0.22924,0.13173,2
0.049006,0.0179,0.035013,0.059261,0.11822,0.10792,0.2659,0.15709,4
0.053318,0.022656,0.038795,0.064614,0.12241,0.11643,0.30314,0.18096,4
0.055876,0.024534,0.042308,0.070071,0.12705,0.12629,0.34221,0.20184,4
0.059871,0.03068,0.048064,0.081686,0.132,0.1352,0.38324,0.22732,4
0.064972,0.034192,0.05157,0.091523,0.13499,0.14601,0.44798,0.25631,4
0.068487,0.037845,0.05706,0.10025,0.13952,0.15751,0.50968,0.28357,4
0.074045,0.042273,0.062324,0.11052,0.14525,0.17114,0.56992,0.31278,4
0.079431,0.046801,0.068265,0.12099,0.15135,0.1837,0.64728,0.34493,4
0.084208,0.050899,0.071812,0.12931,0.15543,0.19583,0.71089,0.37179,4
0.089385,0.054608,0.073116,0.13863,0.15966,0.20645,0.77441,0.40063,1
0.092376,0.057844,0.07336,0.14631,0.16388,0.21492,0.82458,0.42597,1
0.095381,0.060797,0.079964,0.15301,0.16583,0.22342,0.88315,0.44893,1
0.097789,0.06314,0.086835,0.15785,0.16722,0.22994,0.9309,0.46448,1
0.10003,0.065364,0.092679,0.16204,0.16968,0.23544,0.97574,0.47985,1
0.1016,0.066943,0.098189,0.1654,0.1721,0.24118,1.015,0.49283,1
0.10209,0.067941,0.10277,0.16809,0.17314,0.24102,1.048,0.5009,1
0.10184,0.068612,0.10689,0.16946,0.17399,0.24576,1.0763,0.50684,1
0.099426,0.068455,0.11046,0.16958,0.17401,0.24863,1.0971,0.50833,1
0.098522,0.067905,0.11171,0.16758,0.17247,0.24905,1.1115,0.50878,1
0.096302,0.066925,0.11341,0.16499,0.17101,0.24917,1.1148,0.50361,1
0.093965,0.065536,0.11436,0.16139,0.16847,0.24865,1.1127,0.49417,1
0.09184,0.06391,0.11339,0.15711,0.16566,0.24563,1.1046,0.48079,1
0.088536,0.060992,0.11161,0.15023,0.162,0.23969,1.0869,0.46357,1
0.086118,0.058194,0.10915,0.14391,0.15762,0.23451,1.0631,0.44601,1
0.082752,0.054731,0.10605,0.13546,0.15321,0.22832,1.0319,0.42371,1
0.080585,0.052035,0.10308,0.12811,0.15083,0.22124,0.98785,0.39856,1
0.077001,0.048363,0.098353,0.11915,0.14525,0.21449,0.93914,0.37313,1
0.073334,0.044951,0.093493,0.10937,0.13858,0.20562,0.88665,0.34566,1
0.06827,0.041187,0.087936,0.099211,0.13164,0.19543,0.82356,0.31418,1
0.06384,0.036708,0.081776,0.088312,0.12383,0.18387,0.75536,0.28364,4
0.059159,0.032508,0.075174,0.077017,0.11738,0.1755,0.6928,0.25388,4
0.053613,0.028017,0.068271,0.066355,0.10963,0.16556,0.62155,0.22625,4
0.048946,0.023658,0.061596,0.055899,0.10341,0.15557,0.55667,0.20592,4
0.046299,0.020163,0.054115,0.044469,0.098428,0.15133,0.50101,0.18609,4
0.043131,0.016293,0.047806,0.037052,0.095175,0.1429,0.43901,0.16943,4
0.040979,0.012519,0.041162,0.028765,0.089552,0.13373,0.3732,0.15688,4
0.038518,0.0079975,0.035224,0.022813,0.086085,0.12549,0.3105,0.14605,4
0.03657,0.0049193,0.030455,0.018464,0.080982,0.11666,0.26136,0.13397,2
0.034315,0.0027294,0.025632,0.01172,0.07469,0.10802,0.21852,0.12023,2
0.033188,0.0022622,0.021636,0.007603,0.069506,0.10289,0.18725,0.11267,2
0.033418,0.0030285,0.019242,0.0059552,0.066524,0.099602,0.15851,0.10309,2
0.032001,0.0027368,0.01562,0.0030411,0.063957,0.096751,0.13064,0.093646,2
0.03285,0.0028656,0.012568,0.0027715,0.061228,0.093626,0.11254,0.088501,2
0.034486,0.0014856,0.0091576,0.0026458,0.058664,0.091235,0.10467,0.089595,2
0.036943,0.0012902,0.006154,0.0026543,0.056174,0.091109,0.1085,0.089459,2
0.038552,0.0038278,0.0046757,0.0043902,0.056202,0.091103,0.096045,0.088331,2
0.041496,0.0078789,0.0023875,0.0060531,0.055357,0.09,0.090669,0.089809,2
0.043178,0.011366,0.00058997,0.0066646,0.053856,0.087924,0.091688,0.092376,2
0.044708,0.012971,-0.0037032,0.0063448,0.051113,0.085531,0.076787,0.090302,2
0.04676,0.015665,-0.0031917,0.0081015,0.049869,0.083456,0.073168,0.092614,2
0.047061,0.019649,-0.00032966,0.0078758,0.048372,0.07984,0.065896,0.09028,2
0.048617,0.026179,0.0073195,0.0080396,0.046843,0.078171,0.06991,0.090788,2
0.048733,0.031076,0.0096698,0.0075754,0.044797,0.073879,0.066155,0.088788,2
0.050219,0.036583,0.010915,0.0080046,0.044592,0.071759,0.065936,0.091499,2
0.052632,0.042752,0.014112,0.0073457,0.043657,0.069826,0.067041,0.092484,2
0.05386,0.052982,0.017607,0.0071542,0.041911,0.068409,0.067518,0.092991,2
0.05481,0.063567,0.021321,0.0069711,0.040591,0.071295,0.072253,0.093073,2
0.056421,0.073165,0.024646,0.0064095,0.039493,0.070069,0.071451,0.092393,2
0.060006,0.076548,0.025147,0.0068276,0.039161,0.068541,0.074369,0.092941,2
0.061888,0.085887,0.028896,0.0065714,0.037913,0.069141,0.073454,0.091494,2
0.064755,0.096565,0.032921,0.0073543,0.038126,0.069252,0.076408,0.091457,2
0.06711,0.10297,0.035123,0.0074379,0.038999,0.07021,0.081116,0.095407,2
0.069727,0.11302,0.038945,0.0076541,0.039741,0.073044,0.084804,0.099721,2
0.072281,0.12188,0.042768,0.0072779,0.038612,0.076608,0.088791,0.10198,2
0.076009,0.1273,0.045117,0.0077496,0.041176,0.083206,0.093134,0.10762,2
0.079739,0.13909,0.050193,0.0085257,0.04285,0.088225,0.096661,0.11147,2
0.083295,0.15184,0.056105,0.0096257,0.042151,0.090421,0.10153,0.11824,3
0.087444,0.16571,0.062427,0.011439,0.045143,0.10039,0.10695,0.12627,3
0.091173,0.17706,0.068832,0.014069,0.048832,0.10966,0.11139,0.13444,3
0.095177,0.18832,0.075776,0.015941,0.051648,0.1187,0.11644,0.14123,3
0.098842,0.19964,0.082794,0.01825,0.055611,0.12895,0.12331,0.15039,3
0.10215,0.20752,0.088418,0.0202,0.058745,0.13731,0.12897,0.15933,3
0.10674,0.21516,0.093469,0.022821,0.063131,0.1501,0.13781,0.16946,3
0.11131,0.22507,0.099804,0.025371,0.06724,0.16145,0.14466,0.17913,3
0.11526,0.23439,0.10648,0.027854,0.071447,0.17128,0.14992,0.18738,3
0.11885,0.24059,0.11151,0.026377,0.075813,0.18441,0.15647,0.19401,3
0.12162,0.2469,0.11642,0.029548,0.08111,0.19471,0.16296,0.20148,3
0.12351,0.25713,0.12302,0.032259,0.084939,0.20472,0.16799,0.20584,3
0.12532,0.2616,0.12603,0.033565,0.088228,0.21354,0.17279,0.2125,3
0.12632,0.26326,0.12753,0.033837,0.091398,0.22013,0.17521,0.21662,3
0.12697,0.26603,0.13102,0.034596,0.093858,0.22541,0.17797,0.21954,3
0.12855,0.26445,0.13133,0.035506,0.096433,0.22959,0.17941,0.22083,3
0.12886,0.26186,0.13029,0.035763,0.09665,0.23059,0.17845,0.21766,3
0.12748,0.25876,0.12943,0.034877,0.097454,0.23069,0.17921,0.21889,3
0.12685,0.26059,0.13034,0.037173,0.097521,0.22844,0.17651,0.22003,3
0.12635,0.26283,0.131,0.04047,0.098075,0.22575,0.17514,0.22248,3
0.12563,0.26095,0.12915,0.041986,0.097572,0.22087,0.17267,0.22081,3
0.12564,0.25687,0.12679,0.043983,0.095749,0.21442,0.16895,0.21996,3
0.12428,0.25769,0.12585,0.04569,0.094208,0.20749,0.1639,0.2182,3
0.12297,0.25551,0.12471,0.049446,0.092969,0.19867,0.15785,0.21654,3
0.11924,0.25631,0.12316,0.04993,0.090167,0.18804,0.15203,0.21282,3
0.11867,0.25148,0.12084,0.051892,0.087429,0.17884,0.14803,0.20927,3
0.11499,0.24698,0.11834,0.053557,0.084228,0.16802,0.14411,0.20526,3
0.11374,0.24068,0.11453,0.054562,0.080722,0.15726,0.1396,0.20221,3
0.11256,0.23502,0.11184,0.057077,0.077275,0.14635,0.13434,0.19726,3
0.10788,0.23011,0.10702,0.059759,0.074034,0.13464,0.12737,0.19166,3
0.10492,0.22306,0.10203,0.062729,0.069774,0.12184,0.12131,0.18679,3
0.10251,0.21372,0.095725,0.065447,0.067543,0.10948,0.11413,0.18321,3
0.10084,0.20288,0.089864,0.067238,0.063434,0.098077,0.11064,0.18093,3
0.096048,0.19861,0.086788,0.067629,0.060202,0.089298,0.10667,0.17739,3
0.095734,0.19037,0.081483,0.068738,0.058163,0.080376,0.1056,0.17642,3
0.093737,0.17974,0.075328,0.068662,0.054529,0.072506,0.10389,0.17498,3
0.092657,0.17303,0.071474,0.068982,0.051763,0.06508,0.10177,0.17171,3
0.091821,0.16375,0.066713,0.068988,0.05024,0.058539,0.10095,0.16779,3
0.09313,0.15622,0.062605,0.069735,0.049648,0.055169,0.1002,0.16822,3
0.092885,0.15343,0.060917,0.069658,0.048022,0.048692,0.10013,0.16614,3
0.092664,0.14632,0.058476,0.070276,0.048148,0.047131,0.09936,0.16635,3
0.092451,0.13827,0.055463,0.070245,0.048864,0.050327,0.10085,0.16598,3
0.09162,0.12858,0.051981,0.069751,0.050068,0.050727,0.10307,0.1658,2
0.08895,0.11977,0.048995,0.068307,0.051492,0.052325,0.1085,0.16297,2
0.089429,0.11185,0.04626,0.066879,0.053552,0.055861,0.11651,0.16694,2
0.090228,0.10272,0.042795,0.064755,0.054832,0.058789,0.12257,0.16812,2
0.091015,0.097227,0.040854,0.06297,0.0592,0.065566,0.13114,0.16932,2
0.091017,0.092391,0.039956,0.060195,0.062333,0.068421,0.13506,0.16978,2
0.089034,0.084516,0.037527,0.056477,0.066152,0.072477,0.14377,0.16796,2
0.087686,0.07597,0.034304,0.052352,0.069776,0.078248,0.15276,0.16622,2
0.085269,0.069161,0.031704,0.05203,0.072009,0.079595,0.15725,0.16324,2
0.083441,0.061738,0.029362,0.047906,0.07418,0.082036,0.16601,0.16073,2
0.082132,0.051784,0.026115,0.043533,0.075263,0.084129,0.1764,0.16047,2
0.080152,0.044635,0.024778,0.040507,0.076174,0.084401,0.18479,0.15755,2
0.079216,0.03989,0.024346,0.03797,0.076852,0.08441,0.19379,0.15446,2
0.077148,0.033452,0.021141,0.035777,0.078745,0.084447,0.20195,0.15174,2
0.074474,0.029481,0.02012,0.033036,0.078441,0.083625,0.213,0.15009,2
0.072323,0.026902,0.02039,0.032327,0.079428,0.08267,0.22301,0.15314,2
0.072828,0.026135,0.021143,0.033881,0.079933,0.081747,0.22956,0.15112,2
0.071697,0.023161,0.020531,0.033346,0.080988,0.081648,0.23959,0.14822,2
0.070551,0.020463,0.019701,0.031995,0.080295,0.079976,0.249,0.14316,2
0.069606,0.019858,0.020473,0.032519,0.079361,0.077156,0.25618,0.14254,2
0.067287,0.02111,0.022103,0.032024,0.078737,0.076139,0.26175,0.14225,2
0.065497,0.016807,0.021556,0.033385,0.078448,0.074132,0.27413,0.13737,2
0.062345,0.016452,0.022354,0.032591,0.078447,0.073308,0.2816,0.13496,4
0.061264,0.012493,0.022416,0.034461,0.079781,0.073555,0.29041,0.1323,4
0.057452,0.013089,0.023852,0.035219,0.080937,0.071276,0.29623,0.1319,4
0.056115,0.011222,0.024311,0.037759,0.080877,0.071241,0.30372,0.1321,4
0.054464,0.012766,0.025011,0.041104,0.083059,0.072635,0.31243,0.12848,4
0.051663,0.014098,0.025376,0.042196,0.08383,0.070649,0.31558,0.12581,4
0.050825,0.015667,0.026807,0.043962,0.08416,0.070897,0.31716,0.12505,4
0.050268,0.015245,0.027316,0.044089,0.083058,0.071734,0.33197,0.12546,4
0.049616,0.014766,0.028108,0.043949,0.083032,0.07326,0.34873,0.12656,4
0.049048,0.015528,0.029409,0.044971,0.08401,0.075297,0.35537,0.12748,4
0.050146,0.016826,0.029959,0.046274,0.083683,0.073965,0.36321,0.13295,4
0.04801,0.016195,0.030518,0.047336,0.083518,0.076123,0.37249,0.13271,4
0.04787,0.016308,0.031827,0.048795,0.084987,0.079028,0.38515,0.13654,4
0.048705,0.018258,0.032135,0.050163,0.086854,0.081503,0.38787,0.13941,4
0.049129,0.019073,0.03384,0.051664,0.087403,0.086317,0.39845,0.14571,4
0.048793,0.020578,0.036781,0.056556,0.091237,0.090855,0.41393,0.15205,4
0.047733,0.021031,0.038573,0.060454,0.093979,0.098318,0.42469,0.15922,4
0.048023,0.022918,0.041097,0.065106,0.095491,0.10353,0.44429,0.16767,4
0.050258,0.024767,0.043958,0.070456,0.10124,0.10992,0.4654,0.17882,4
0.051571,0.026804,0.047062,0.075959,0.10609,0.11541,0.48619,0.18816,4
0.054903,0.029139,0.049639,0.080731,0.10936,0.12004,0.50382,0.19875,4
0.055612,0.031185,0.052684,0.087716,0.11463,0.12507,0.51831,0.20481,4
0.056929,0.032892,0.054778,0.092637,0.11888,0.12994,0.53247,0.21568,4
0.058448,0.034569,0.057344,0.099844,0.1221,0.13385,0.54076,0.22383,4
0.059493,0.037093,0.061305,0.10581,0.12439,0.13752,0.55769,0.23429,4
0.061466,0.03898,0.063365,0.11157,0.12698,0.14231,0.56938,0.24593,4
0.063465,0.041455,0.066303,0.11765,0.12906,0.14772,0.5844,0.25484,4
0.066923,0.044201,0.069369,0.12317,0.13147,0.15221,0.60411,0.26306,4
0.069646,0.0473,0.073268,0.12871,0.13268,0.15734,0.6204,0.27146,4
0.07201,0.049728,0.076126,0.13472,0.1357,0.16149,0.63394,0.28052,4
0.074179,0.052036,0.078975,0.14038,0.13817,0.16563,0.63809,0.28807,4
0.076385,0.054618,0.080363,0.14532,0.13983,0.16794,0.65158,0.29778,4
0.078891,0.056372,0.081461,0.14895,0.13853,0.16792,0.66212,0.30222,4
0.080006,0.057333,0.082393,0.15243,0.13944,0.16769,0.667,0.3084,4
0.081233,0.058302,0.083748,0.15465,0.14021,0.16993,0.67122,0.31204,4
0.080826,0.058799,0.085202,0.15585,0.14036,0.16961,0.67402,0.3139,4
0.0807,0.058919,0.086527,0.15556,0.14029,0.16919,0.67026,0.31456,4
0.080107,0.058791,0.086615,0.15473,0.14052,0.16831,0.66807,0.31425,4
0.078164,0.058256,0.08673,0.15219,0.13929,0.16833,0.66088,0.30976,4
0.076598,0.057405,0.086189,0.15016,0.14066,0.16585,0.65523,0.30445,4
0.074898,0.055847,0.085724,0.14621,0.14034,0.16367,0.64115,0.30091,4
0.072906,0.054101,0.084018,0.14159,0.14012,0.16183,0.62973,0.29313,4
0.07009,0.051967,0.081386,0.13595,0.13828,0.15932,0.61571,0.28451,4
0.06752,0.049422,0.078667,0.1306,0.13641,0.15722,0.60678,0.27723,4
0.064972,0.046624,0.0755,0.12308,0.13435,0.15405,0.59018,0.26591,4
0.061735,0.043658,0.072745,0.11548,0.13114,0.15121,0.57552,0.25779,4
0.057972,0.040856,0.069502,0.10772,0.12779,0.14981,0.56338,0.25078,4
0.055089,0.037742,0.065595,0.098964,0.12296,0.14583,0.55724,0.24136,4
0.050203,0.034375,0.06153,0.090956,0.12095,0.14274,0.53466,0.22844,4
0.047102,0.031829,0.058292,0.083007,0.11845,0.13855,0.51578,0.218,4
0.042946,0.028786,0.053742,0.074658,0.11487,0.13317,0.49744,0.20665,4
0.040044,0.025497,0.04994,0.066668,0.11251,0.13304,0.48339,0.19275,4
0.037295,0.023322,0.046268,0.058994,0.10895,0.13002,0.46974,0.18189,4
0.034885,0.021309,0.042802,0.052091,0.10547,0.12665,0.45363,0.1711,4
0.031758,0.018059,0.040232,0.046118,0.1015,0.12284,0.44641,0.16152,4
0.030563,0.015621,0.037207,0.041538,0.098699,0.11787,0.43592,0.15151,4
0.028351,0.01274,0.033423,0.034718,0.094637,0.11405,0.4228,0.14052,4
0.0279,0.011658,0.031097,0.030221,0.091216,0.10864,0.41334,0.13013,4
0.026951,0.0094217,0.027889,0.026047,0.088766,0.10272,0.39835,0.12091,4
0.024406,0.0077985,0.024996,0.022312,0.085784,0.098189,0.38104,0.11079,4
0.022771,0.0058193,0.021937,0.018507,0.082123,0.093816,0.36546,0.10173,4
0.021102,0.0047563,0.019502,0.016205,0.07969,0.089824,0.34857,0.094073,4
0.021204,0.0034583,0.016437,0.012781,0.074429,0.08499,0.33199,0.089489,4
0.020314,0.0031161,0.015087,0.012153,0.070598,0.07981,0.31988,0.082646,4
0.020113,0.0029693,0.014077,0.0092375,0.066161,0.076583,0.31346,0.079737,4
0.020297,0.0023108,0.011884,0.0075336,0.063603,0.073855,0.30242,0.075565,4
0.021104,0.0030014,0.011597,0.0071759,0.061093,0.072108,0.29588,0.07127,2
0.021846,0.0028207,0.010814,0.0063714,0.058176,0.0689,0.2852,0.069178,2
0.022143,0.0031484,0.010917,0.0071643,0.056855,0.068074,0.27505,0.07048,2
0.022398,0.0031735,0.0098598,0.0076808,0.055635,0.063308,0.2617,0.070673,2
0.022483,0.0030436,0.0090654,0.0078427,0.053031,0.060723,0.24834,0.069646,2
0.023205,0.0035722,0.0076416,0.0071008,0.050604,0.057365,0.24411,0.070701,2
0.022997,0.0030145,0.0072379,0.0065037,0.049048,0.054748,0.23164,0.070414,2
0.022576,0.0026006,0.0078582,0.0062637,0.049335,0.055146,0.21903,0.072477,2
0.022687,0.0025124,0.0092551,0.0062062,0.04815,0.056091,0.2052,0.070505,2
0.023545,0.0016297,0.0089968,0.0058842,0.046944,0.054018,0.19115,0.069905,2
0.023526,0.0019946,0.0091595,0.0054181,0.046447,0.053641,0.1779,0.070168,2
0.022821,0.00099469,0.0087586,0.0054047,0.04542,0.052166,0.16789,0.070536,2
0.023197,0.00049631,0.0091558,0.0049675,0.044058,0.051877,0.15151,0.070404,2
0.023658,0.00050591,0.00856,0.005057,0.044183,0.051268,0.13965,0.071091,2
0.024715,-6.7947e-06,0.0087616,0.0052681,0.04324,0.052852,0.13027,0.072037,2
0.024818,-0.0013498,0.0081495,0.0054713,0.043168,0.053282,0.12118,0.072089,2
0.025027,-4.6306e-05,0.0086526,0.005484,0.042161,0.053621,0.11413,0.073459,2
0.025288,-0.00094185,0.0093722,0.0061408,0.041077,0.053543,0.10819,0.075199,2
0.024987,-0.0020775,0.0086732,0.0064595,0.039667,0.054065,0.098105,0.073708,2
0.025413,-0.0020359,0.0081043,0.0065154,0.039048,0.055002,0.093136,0.07345,2
0.026544,-0.0022159,0.0071403,0.0063869,0.038096,0.055465,0.085352,0.073161,2
0.026515,-0.00098396,0.0067086,0.0061078,0.036515,0.054207,0.079603,0.072552,2
0.028191,0.0035871,0.0075427,0.0062568,0.035421,0.054577,0.075128,0.073293,2
0.028816,0.0035565,0.0076807,0.0059921,0.035024,0.054852,0.074823,0.074707,2
0.029326,0.0030731,0.0066972,0.0056191,0.033068,0.053913,0.067142,0.074711,2
0.030101,0.0046243,0.0055251,0.0050753,0.031395,0.053798,0.06859,0.07461,2
0.03125,0.0079306,0.0050814,0.0051514,0.030296,0.05305,0.067277,0.073596,2
0.032116,0.0078949,0.0048748,0.005184,0.029256,0.051322,0.063591,0.072364,2
0.033536,0.0089177,0.0037561,0.0046162,0.027742,0.049725,0.060475,0.072061,2
0.035883,0.015007,0.0057177,0.0042589,0.025902,0.046997,0.058221,0.071007,2
0.037162,0.023697,0.0078102,0.0038297,0.025382,0.047684,0.055443,0.067981,2
0.03905,0.031381,0.0091187,0.0034896,0.022856,0.045971,0.054367,0.068161,2
0.040898,0.041087,0.012267,0.0032645,0.021289,0.0463,0.055712,0.070464,2
0.043939,0.050934,0.015331,0.0031324,0.020595,0.04812,0.058598,0.07383,2
0.04752,0.062876,0.020057,0.0032602,0.020564,0.049755,0.061119,0.07509,2
0.050305,0.073461,0.023329,0.003896,0.021699,0.054252,0.062903,0.078063,2
0.052212,0.085767,0.027921,0.0043365,0.022408,0.059295,0.068785,0.08404,2
0.05582,0.10179,0.034596,0.0053765,0.025042,0.066019,0.07682,0.087933,2
0.059902,0.11246,0.039822,0.0059564,0.026532,0.071764,0.081229,0.091908,2
0.064325,0.12391,0.044755,0.0070912,0.03064,0.08142,0.088543,0.10055,2
0.069651,0.1376,0.050807,0.0085824,0.034534,0.091473,0.099171,0.10757,2
0.075116,0.15385,0.058935,0.010817,0.039864,0.10335,0.10878,0.1165,3
0.081596,0.16823,0.065875,0.012853,0.04598,0.11772,0.11836,0.12782,3
0.086416,0.18059,0.072729,0.014916,0.050862,0.13025,0.12728,0.1366,3
0.091646,0.19054,0.077929,0.017399,0.056159,0.14577,0.1388,0.14694,3
0.096175,0.20177,0.084726,0.019768,0.061479,0.15764,0.14714,0.15719,3
0.10006,0.21147,0.091203,0.021797,0.066595,0.16954,0.15554,0.16593,3
0.10435,0.22015,0.09766,0.023381,0.070226,0.18012,0.16177,0.1754,3
0.10827,0.23184,0.10452,0.025038,0.074042,0.18859,0.16638,0.18294,3
0.11281,0.24267,0.11065,0.026483,0.077356,0.19625,0.17135,0.19142,3
0.11461,0.2503,0.11556,0.027147,0.080206,0.20296,0.17429,0.19724,3
0.11706,0.25784,0.12017,0.028362,0.082381,0.20765,0.17646,0.20378,3
0.12013,0.2624,0.12246,0.029319,0.083996,0.21139,0.17705,0.20722,3
0.12102,0.26489,0.12428,0.028879,0.084995,0.21223,0.17816,0.2121,3
0.12346,0.27184,0.12844,0.030087,0.086347,0.211,0.17801,0.21481,3
0.12223,0.27435,0.12989,0.029572,0.085422,0.20798,0.1763,0.2162,3
0.12225,0.27943,0.13189,0.028771,0.084916,0.2051,0.17404,0.21654,3
0.12204,0.27696,0.13108,0.028281,0.083969,0.20041,0.16845,0.21365,3
0.12057,0.27822,0.13038,0.028348,0.082205,0.19336,0.16202,0.21234,3
0.11922,0.27425,0.12802,0.028594,0.081127,0.18717,0.15888,0.212,3
0.11826,0.27197,0.12605,0.02949,0.078955,0.17866,0.15413,0.20861,3
0.11471,0.2645,0.12287,0.030251,0.07558,0.16792,0.14849,0.20549,3
0.1118,0.25744,0.11884,0.030345,0.071403,0.15733,0.14108,0.19932,3
0.10807,0.24714,0.11381,0.030573,0.068781,0.14626,0.13357,0.19366,3
0.10658,0.23945,0.1083,0.031084,0.06497,0.13334,0.12466,0.18586,3
0.10417,0.23182,0.10359,0.03071,0.060714,0.12105,0.11716,0.17826,3
0.1014,0.22211,0.098155,0.030908,0.056278,0.10747,0.10835,0.16989,3
0.097672,0.21041,0.093144,0.031485,0.050761,0.092624,0.10173,0.16136,3
0.095613,0.20275,0.087668,0.031303,0.046089,0.079239,0.09605,0.15542,3
0.09235,0.19625,0.084543,0.032352,0.043099,0.067374,0.087898,0.14759,3
0.088732,0.18647,0.079124,0.032863,0.040942,0.059566,0.084062,0.14073,3
0.085474,0.17431,0.073251,0.032178,0.036147,0.049047,0.080756,0.13612,3
0.082454,0.16448,0.069427,0.033488,0.034943,0.04292,0.07737,0.1309,3
0.078953,0.15241,0.064489,0.034521,0.03455,0.036933,0.073508,0.12482,3
0.075277,0.14182,0.060907,0.035823,0.035492,0.034446,0.07164,0.11691,2
0.071195,0.1295,0.054491,0.036656,0.035852,0.032394,0.071814,0.11194,2
0.068007,0.12003,0.051826,0.038568,0.036023,0.031261,0.074031,0.10843,2
0.067722,0.10987,0.048969,0.040946,0.036904,0.032081,0.074929,0.10439,2
0.06595,0.096034,0.044525,0.042683,0.037422,0.033802,0.07715,0.10124,2
0.065064,0.087645,0.041262,0.044136,0.040413,0.03964,0.080104,0.10219,2
0.064065,0.080009,0.039727,0.045821,0.043692,0.044273,0.084835,0.10175,2
0.062022,0.070944,0.03786,0.047726,0.047476,0.050357,0.086932,0.10318,2
0.060638,0.058977,0.033855,0.048227,0.049628,0.056823,0.089596,0.10389,2
0.057689,0.047847,0.030617,0.046907,0.052406,0.061842,0.094327,0.10246,2
0.055611,0.039507,0.027856,0.0443,0.055596,0.066666,0.098248,0.10289,2
0.053791,0.034228,0.027348,0.04533,0.058517,0.071708,0.099039,0.10104,2
0.052202,0.028315,0.025987,0.045711,0.061181,0.076198,0.10233,0.10097,2
0.051933,0.025219,0.025565,0.045744,0.063346,0.08085,0.10264,0.102,2
0.050503,0.023986,0.025316,0.046862,0.066032,0.087559,0.10294,0.099024,2
0.050585,0.019636,0.02375,0.047618,0.068717,0.09169,0.10286,0.097202,2
0.047837,0.0148,0.021244,0.04685,0.071003,0.096116,0.10306,0.096338,2
0.047444,0.013895,0.02106,0.047121,0.072384,0.099049,0.10429,0.097182,2
0.047357,0.011515,0.02028,0.047118,0.074921,0.10189,0.10401,0.096183,2
0.047004,0.013199,0.02143,0.046881,0.076669,0.10557,0.1037,0.096679,2
0.04721,0.017116,0.023326,0.047797,0.079663,0.10948,0.10055,0.093181,2
0.046717,0.015309,0.02258,0.046506,0.080112,0.114,0.10148,0.092649,2
0.048408,0.017172,0.023494,0.046907,0.081334,0.11696,0.10161,0.090709,2
0.049012,0.01565,0.022354,0.047511,0.081645,0.11842,0.1032,0.090604,2
0.048907,0.017148,0.022594,0.047567,0.081951,0.1192,0.10664,0.092735,2
0.050674,0.015846,0.021872,0.048459,0.083817,0.12282,0.11083,0.092901,2
0.052533,0.01919,0.023071,0.048425,0.08606,0.1254,0.1126,0.092289,2
0.052868,0.018963,0.02314,0.047828,0.088374,0.12826,0.11648,0.092903,2
0.05396,0.02325,0.02418,0.047535,0.090244,0.13049,0.11807,0.09253,2
0.056858,0.025939,0.025594,0.04812,0.093709,0.13321,0.11874,0.093256,2
0.058459,0.026371,0.025763,0.048108,0.094365,0.13433,0.12084,0.091627,2
0.059321,0.026913,0.026111,0.047441,0.096143,0.13443,0.12442,0.092566,2
0.059319,0.027456,0.025675,0.048312,0.096518,0.13394,0.12845,0.092054,2
0.058959,0.027585,0.026095,0.048477,0.099558,0.13609,0.13362,0.091955,2
0.058997,0.027318,0.025174,0.046626,0.10137,0.13926,0.13835,0.091964,2
0.058294,0.027534,0.026138,0.047368,0.10352,0.13922,0.13988,0.090898,2
0.058706,0.027445,0.026893,0.047455,0.10489,0.13923,0.146,0.089963,2
0.058181,0.02734,0.027466,0.047534,0.10478,0.13928,0.1533,0.088867,2
0.057614,0.026271,0.027349,0.048308,0.10799,0.13928,0.15855,0.088396,2
0.056092,0.026212,0.028312,0.049314,0.1104,0.14126,0.16326,0.086821,2
0.055212,0.025932,0.028539,0.048867,0.11231,0.14261,0.1696,0.08486,2
0.05493,0.026397,0.028668,0.049585,0.11304,0.14144,0.17477,0.084686,2
0.054785,0.026793,0.030355,0.051268,0.11511,0.14441,0.18033,0.085087,2
0.054185,0.026902,0.030818,0.051069,0.11623,0.14544,0.18262,0.083289,2
0.052907,0.026456,0.031009,0.050393,0.11853,0.14634,0.18785,0.081848,2
0.051872,0.02556,0.030661,0.049695,0.12064,0.14802,0.18979,0.08368,2
0.05032,0.025005,0.031501,0.04981,0.1234,0.14827,0.19398,0.085109,2
0.04823,0.024,0.031087,0.048552,0.12484,0.1502,0.1975,0.084847,2
0.047559,0.023402,0.031216,0.048174,0.12668,0.1525,0.20078,0.084238,2
0.045396,0.022739,0.031599,0.048181,0.13149,0.15601,0.20622,0.082955,2
0.044998,0.023184,0.032061,0.049141,0.13218,0.1584,0.20852,0.083596,2
0.044418,0.022724,0.033007,0.053959,0.13435,0.16046,0.21326,0.082626,2
0.04427,0.022947,0.034207,0.056157,0.13412,0.16098,0.21639,0.084132,2
0.044173,0.022644,0.034436,0.056784,0.13536,0.16126,0.21833,0.083434,2
0.043244,0.022381,0.034625,0.058684,0.13773,0.16238,0.22565,0.082796,2
0.043121,0.022162,0.034422,0.059915,0.1406,0.16186,0.22786,0.083474,2
0.041918,0.02211,0.0348,0.060089,0.1418,0.16455,0.23464,0.084106,2
0.04241,0.022059,0.035969,0.062147,0.14404,0.16454,0.23846,0.083709,2
0.042862,0.02223,0.036903,0.06382,0.14611,0.16692,0.23964,0.083075,2
0.043216,0.022115,0.036638,0.064392,0.14638,0.16944,0.24431,0.082085,2
0.042915,0.021872,0.036903,0.064001,0.14804,0.16994,0.24956,0.08246,2
0.043252,0.021815,0.036086,0.063568,0.14787,0.17032,0.25878,0.084396,4
0.043574,0.02223,0.036588,0.063788,0.14776,0.16973,0.26227,0.085226,4
0.043196,0.022196,0.036947,0.063662,0.1487,0.16895,0.26463,0.085729,4
0.043312,0.021824,0.036282,0.062321,0.15002,0.16982,0.26542,0.084551,4
0.044027,0.022849,0.03716,0.063668,0.15164,0.17019,0.26837,0.083883,4
0.043069,0.022657,0.037511,0.062585,0.15269,0.16944,0.26867,0.083353,4
0.04328,0.023023,0.037394,0.062131,0.15215,0.16595,0.26473,0.0827,4
0.0427,0.022765,0.036556,0.062369,0.15294,0.16546,0.26336,0.081715,4
0.043563,0.02281,0.036252,0.061522,0.15322,0.16432,0.26347,0.081715,4
0.04337,0.021605,0.034295,0.059135,0.15406,0.16013,0.26811,0.082016,4
0.043395,0.021396,0.033776,0.059581,0.15652,0.15968,0.26978,0.082101,4
0.041863,0.021261,0.03335,0.059397,0.15676,0.15946,0.27396,0.082491,4
0.041716,0.021056,0.033665,0.059666,0.16015,0.1602,0.27437,0.082348,4
0.041719,0.021432,0.03423,0.060999,0.16026,0.1577,0.27721,0.083196,4
0.041734,0.021984,0.035667,0.063539,0.16168,0.15446,0.27807,0.083017,4
0.041856,0.021851,0.035737,0.063161,0.16107,0.153,0.28526,0.083464,4
0.041528,0.022044,0.035925,0.063631,0.1616,0.15348,0.28411,0.083235,4
0.041635,0.022449,0.036067,0.0647,0.16352,0.15411,0.28414,0.083065,4
0.041252,0.023747,0.037113,0.065693,0.16367,0.15512,0.28636,0.082927,4
0.041272,0.023329,0.037462,0.065302,0.1624,0.15371,0.28931,0.081958,4
0.041769,0.024452,0.038877,0.067599,0.16196,0.15219,0.29201,0.082496,4
0.040954,0.023916,0.038827,0.067962,0.16223,0.15282,0.29089,0.081752,4
0.040026,0.023746,0.038767,0.068463,0.16145,0.15261,0.29203,0.081678,4
0.039851,0.023492,0.038818,0.067581,0.1606,0.15082,0.29424,0.081717,4
0.039394,0.022919,0.038388,0.068206,0.15857,0.1502,0.29409,0.082377,4
0.038772,0.022913,0.038219,0.067829,0.15841,0.14859,0.29538,0.081492,4
0.038031,0.022513,0.038132,0.067706,0.15748,0.14982,0.29644,0.08131,4
0.038458,0.022342,0.038158,0.067751,0.15625,0.14844,0.30151,0.081979,4
0.038819,0.022661,0.039115,0.06828,0.15523,0.14719,0.30808,0.082178,4
0.039476,0.02327,0.040233,0.068348,0.14924,0.14266,0.31012,0.08383,4
0.038672,0.023335,0.040934,0.070064,0.14819,0.14013,0.31467,0.082745,4
0.038839,0.023127,0.040621,0.070111,0.14561,0.13812,0.31784,0.082351,4
0.038161,0.023156,0.040455,0.068737,0.14547,0.13679,0.32512,0.082595,4
0.038308,0.023484,0.040615,0.069606,0.1456,0.13844,0.32914,0.082997,4
0.038925,0.024105,0.041271,0.069718,0.14477,0.13748,0.33257,0.083193,4
0.038725,0.024463,0.041795,0.068945,0.1439,0.13852,0.33936,0.082545,4
0.039087,0.024316,0.042224,0.068948,0.14302,0.13751,0.34163,0.082112,4
0.039629,0.024961,0.043091,0.068931,0.14233,0.13873,0.3465,0.083117,4
0.039685,0.024572,0.042337,0.067774,0.13965,0.13702,0.35021,0.083243,4
0.039579,0.024555,0.042479,0.067049,0.13836,0.13546,0.34939,0.082677,4
0.039458,0.024865,0.042345,0.066637,0.13618,0.13406,0.35002,0.081577,4
0.039551,0.025168,0.043556,0.066295,0.13359,0.1327,0.34877,0.080663,4
0.039602,0.025111,0.043275,0.066058,0.13306,0.1307,0.34505,0.079377,4
0.039911,0.024283,0.042109,0.0648,0.13122,0.12885,0.34029,0.078512,4
0.040418,0.024891,0.04289,0.065578,0.13214,0.12733,0.34443,0.079733,4
0.039907,0.024159,0.041931,0.064595,0.13269,0.12697,0.34503,0.079584,4
0.04072,0.024166,0.04058,0.064295,0.13477,0.12725,0.34159,0.08095,4
0.040105,0.02375,0.040156,0.064912,0.13617,0.12839,0.34519,0.081341,4
0.040006,0.023178,0.039821,0.062885,0.13693,0.12784,0.34838,0.082516,4
0.039931,0.022443,0.038795,0.062766,0.14002,0.12842,0.34898,0.082158,4
0.04031,0.022851,0.039718,0.064181,0.13973,0.13172,0.34564,0.081281,4
0.039279,0.022363,0.039849,0.062804,0.13961,0.13239,0.34764,0.082662,4
0.040236,0.022256,0.040665,0.064873,0.14188,0.13282,0.34837,0.083133,4
0.039682,0.022303,0.039869,0.063905,0.14082,0.13293,0.34776,0.082919,4
0.040114,0.021994,0.039677,0.064104,0.14172,0.13481,0.34932,0.083369,4
0.04041,0.022061,0.039781,0.065254,0.14218,0.13695,0.35172,0.085887,4
0.040566,0.022231,0.040305,0.067503,0.14451,0.14157,0.34524,0.086455,4
0.040156,0.022186,0.040444,0.068802,0.14475,0.14292,0.34714,0.087149,4
0.039329,0.021668,0.040087,0.06893,0.14523,0.14245,0.34717,0.087778,4
0.039351,0.021457,0.040835,0.069472,0.14442,0.14329,0.34892,0.088152,4
0.038856,0.021355,0.040585,0.071409,0.14508,0.14373,0.34439,0.087603,4
0.038202,0.02,0.038751,0.070082,0.14352,0.14406,0.33702,0.088262,4
0.037521,0.019591,0.038444,0.070617,0.14185,0.14357,0.33856,0.089406,4
0.037014,0.019218,0.038308,0.069907,0.14078,0.14212,0.33444,0.089017,4
0.036502,0.01867,0.03797,0.071505,0.13977,0.14208,0.3349,0.089953,4
0.036617,0.01869,0.037951,0.071275,0.13857,0.14229,0.33553,0.089023,4
0.036479,0.018389,0.038093,0.0711,0.13698,0.14162,0.33568,0.089631,4
0.036862,0.01833,0.038537,0.071232,0.13645,0.14075,0.33555,0.089577,4
0.036582,0.018412,0.038732,0.07202,0.13463,0.13949,0.32948,0.086977,4
0.035932,0.017862,0.037872,0.07097,0.13198,0.13779,0.32393,0.086859,4
0.035649,0.017275,0.036794,0.070488,0.13242,0.13818,0.32226,0.085905,4
0.036359,0.017226,0.035787,0.069331,0.13137,0.1375,0.31923,0.086042,4
0.036608,0.017462,0.036055,0.068031,0.13159,0.13741,0.31315,0.086341,4
0.036706,0.017288,0.035808,0.066811,0.13075,0.13627,0.30822,0.085719,4
0.03682,0.018065,0.03611,0.065493,0.13077,0.13606,0.30582,0.085463,4
0.035875,0.017587,0.035571,0.063036,0.12824,0.13595,0.29947,0.083807,4
0.035792,0.01731,0.035356,0.061819,0.12648,0.13333,0.29502,0.083556,4
0.03605,0.017264,0.034679,0.0603,0.12359,0.13053,0.28641,0.082629,4
0.035154,0.016869,0.033425,0.057686,0.11988,0.12683,0.27484,0.080966,4
0.034848,0.016486,0.033036,0.055834,0.11904,0.12376,0.26627,0.079713,2
0.03452,0.016078,0.032346,0.053706,0.11832,0.12099,0.26178,0.078892,2
0.033787,0.015528,0.031341,0.051444,0.11651,0.11873,0.25525,0.078133,2
0.032891,0.014806,0.029865,0.04881,0.11474,0.11509,0.2463,0.076726,2
0.032317,0.014296,0.02883,0.046361,0.1144,0.11387,0.24293,0.075703,2
0.031424,0.014152,0.02747,0.043763,0.11369,0.11276,0.24137,0.074542,2
0.029856,0.013388,0.025753,0.040748,0.11136,0.11046,0.23261,0.073299,2
0.029805,0.01269,0.024489,0.037388,0.10955,0.10875,0.22565,0.071935,2
0.028338,0.011642,0.023694,0.034545,0.10828,0.10687,0.22157,0.068765,2
0.027671,0.010536,0.022183,0.030179,0.1073,0.10584,0.21775,0.067361,2
0.027801,0.0097867,0.021307,0.028206,0.10546,0.10309,0.21047,0.066466,2
0.02746,0.009105,0.020405,0.025264,0.10325,0.10283,0.20589,0.06611,2
0.027134,0.0086108,0.019316,0.023356,0.10343,0.10398,0.20467,0.066968,2
0.02765,0.0084217,0.018679,0.022865,0.10352,0.1042,0.19903,0.066364,2
0.026733,0.0083431,0.017846,0.020889,0.10196,0.10588,0.19082,0.065662,2
0.027062,0.0085161,0.017904,0.021739,0.10311,0.10697,0.18789,0.066653,2
0.026091,0.0080176,0.017083,0.020541,0.10084,0.10654,0.18177,0.065353,2
0.025867,0.0077738,0.016603,0.018671,0.10026,0.10474,0.17413,0.064803,2
0.026551,0.0080848,0.016548,0.018117,0.098394,0.10342,0.17037,0.064124,2
0.027285,0.008259,0.015811,0.016904,0.096133,0.10375,0.16669,0.064682,2
0.027632,0.0082091,0.015589,0.016347,0.093854,0.10412,0.16506,0.065606,2
0.027667,0.0083603,0.015279,0.016643,0.093717,0.10672,0.16011,0.065657,2
0.028174,0.0081691,0.014343,0.015235,0.092485,0.10721,0.15945,0.067763,2
0.028291,0.0081377,0.014906,0.016091,0.093268,0.10946,0.16235,0.068325,2
0.029423,0.0086563,0.015219,0.016281,0.09437,0.11088,0.15901,0.068683,2
0.030272,0.0088958,0.015395,0.016733,0.094293,0.11165,0.15956,0.069723,2
0.031621,0.0089914,0.015188,0.016513,0.095484,0.11435,0.15666,0.069474,2
0.032296,0.0089432,0.015218,0.016039,0.097769,0.11489,0.15141,0.070678,2
0.033424,0.0093803,0.015151,0.01671,0.099474,0.1184,0.14635,0.071272,2
0.033891,0.0096359,0.014282,0.016471,0.099326,0.12051,0.14365,0.07245,2
0.035021,0.010142,0.014674,0.016452,0.099374,0.12179,0.14048,0.073577,2
0.035616,0.010528,0.014712,0.016611,0.099059,0.12332,0.13686,0.073169,2
0.036213,0.01097,0.014536,0.016081,0.098835,0.12506,0.1328,0.073974,2
0.036333,0.011316,0.014881,0.015888,0.098776,0.12714,0.12957,0.074937,2
0.036403,0.011668,0.014455,0.015401,0.097733,0.12932,0.12872,0.076338,2
0.036849,0.011186,0.014224,0.015031,0.097822,0.13261,0.12382,0.075753,2
0.036767,0.011331,0.014015,0.014358,0.095407,0.13373,0.12078,0.076101,2
0.036616,0.011718,0.01384,0.014746,0.094879,0.13365,0.11749,0.076742,2
0.036163,0.011293,0.013331,0.014216,0.093653,0.13389,0.11133,0.076079,2
0.035377,0.011178,0.01338,0.013477,0.093183,0.13471,0.10912,0.076423,2
0.035569,0.01084,0.013462,0.013225,0.091654,0.13365,0.10707,0.075495,2
0.035363,0.010913,0.012974,0.012767,0.090167,0.13434,0.10589,0.074773,2
0.034753,0.011333,0.01237,0.01248,0.088795,0.13612,0.10213,0.074848,2
0.034465,0.011452,0.012172,0.012085,0.087457,0.13646,0.098789,0.074792,2
0.034166,0.011379,0.011809,0.01189,0.086424,0.13505,0.096973,0.073471,2
0.032659,0.010942,0.011278,0.011152,0.084046,0.13477,0.092362,0.071379,2
0.032026,0.01062,0.011301,0.010869,0.082576,0.13377,0.091531,0.071755,2
0.031818,0.0097916,0.01137,0.010236,0.081265,0.1343,0.088791,0.070945,2
0.030911,0.0093722,0.010812,0.0098433,0.079988,0.13374,0.084067,0.069571,2
0.031555,0.0094528,0.01025,0.0092799,0.076193,0.13054,0.081897,0.06976,2
0.031663,0.0090527,0.0095196,0.0092011,0.07416,0.13059,0.078919,0.069037,2
0.031357,0.0086203,0.0086106,0.0089563,0.071923,0.13048,0.076677,0.068694,2
0.031311,0.0083474,0.0084553,0.0091389,0.070043,0.12838,0.074267,0.068624,2
0.030945,0.007647,0.0081772,0.009485,0.067629,0.12627,0.070172,0.067392,2
0.030286,0.0079926,0.0084679,0.0093823,0.06508,0.12287,0.066356,0.065824,2
0.030848,0.0082239,0.0083344,0.0087603,0.062771,0.12001,0.064873,0.064993,2
0.030338,0.0077263,0.0077689,0.0081998,0.059404,0.11672,0.062626,0.064704,2
0.030002,0.0081562,0.0082253,0.0086035,0.058636,0.11486,0.060412,0.065141,2
0.030214,0.0079932,0.0079263,0.0091236,0.056398,0.11362,0.057154,0.064158,2
0.029953,0.0077041,0.0076582,0.0089101,0.055386,0.11297,0.05693,0.065573,2
0.029999,0.0076042,0.0083558,0.0090366,0.054521,0.11075,0.056615,0.065688,2
0.030801,0.0074861,0.0086069,0.0091004,0.054491,0.10939,0.053768,0.066455,2
0.031147,0.0070099,0.0082797,0.0089986,0.053215,0.10485,0.052389,0.067774,2
0.03081,0.0061196,0.0088022,0.0086745,0.052741,0.10128,0.0513,0.068059,2
0.030869,0.0066869,0.0095138,0.0092634,0.052076,0.098276,0.049154,0.06802,2
0.030796,0.0067041,0.0098397,0.0091319,0.050622,0.095679,0.048395,0.067554,2
0.031545,0.0067277,0.010146,0.0092196,0.051089,0.093887,0.048207,0.067442,2
0.031528,0.0069379,0.010448,0.0090989,0.050299,0.09114,0.047572,0.067374,2
0.031436,0.0071768,0.010715,0.0089266,0.049658,0.091064,0.046572,0.068055,2
0.031758,0.0074542,0.011031,0.008629,0.047337,0.087554,0.045244,0.067957,2
0.032035,0.0075407,0.011121,0.0083158,0.045561,0.084924,0.044055,0.066691,2
0.031467,0.0075412,0.010852,0.0084597,0.044989,0.083089,0.044125,0.065694,2
0.0309,0.007492,0.01075,0.0081698,0.044934,0.081118,0.044983,0.066708,2
0.03112,0.0070715,0.01073,0.0078945,0.045006,0.081661,0.045379,0.06731,2
0.03083,0.0065511,0.010879,0.0072208,0.04437,0.081706,0.045763,0.066491,2
0.030342,0.0064746,0.010715,0.0067611,0.043052,0.08054,0.046038,0.065558,2
0.030094,0.0081765,0.010723,0.006415,0.041826,0.078308,0.047878,0.066139,2
0.029637,0.008448,0.010998,0.0059829,0.040531,0.075409,0.047661,0.065089,2
0.028779,0.0082207,0.01096,0.0055653,0.040141,0.074567,0.047743,0.064189,2
0.029257,0.0094138,0.011309,0.0050457,0.038921,0.073161,0.048142,0.064806,2
0.029806,0.010287,0.011605,0.0053419,0.03868,0.073324,0.049341,0.064945,2
0.029918,0.011079,0.011446,0.00525,0.038628,0.073948,0.051128,0.066219,2
0.029421,0.011776,0.011449,0.005011,0.039227,0.074638,0.053072,0.067113,2
0.028766,0.011852,0.011463,0.0047821,0.037912,0.072642,0.054214,0.065507,2
0.028005,0.011374,0.011866,0.0047198,0.037649,0.073033,0.055231,0.064133,2
0.029164,0.01202,0.012458,0.0046546,0.037655,0.076241,0.056792,0.065,2
0.029623,0.012687,0.012983,0.0047009,0.036707,0.076394,0.060417,0.068024,2
0.030087,0.013232,0.013027,0.0050831,0.036396,0.077882,0.062783,0.068304,2
0.0302,0.013691,0.012908,0.0052881,0.035565,0.078871,0.065619,0.068676,2
0.030353,0.013912,0.012395,0.0052467,0.034274,0.080169,0.068174,0.068545,2
0.031296,0.01459,0.012428,0.0053526,0.034844,0.083024,0.070585,0.071147,2
0.032475,0.016446,0.012816,0.0055434,0.034104,0.084239,0.073282,0.072557,2
0.033057,0.017883,0.013326,0.006272,0.034406,0.085974,0.076512,0.07402,2
0.033696,0.019078,0.013417,0.006536,0.033239,0.086781,0.07808,0.075897,2
0.034452,0.020762,0.014016,0.006389,0.033255,0.088656,0.080966,0.078219,2
0.03541,0.021588,0.01378,0.006883,0.033458,0.091517,0.082593,0.081503,2
0.036024,0.022527,0.013814,0.0075159,0.034194,0.094382,0.085774,0.085177,2
0.037531,0.023355,0.014254,0.0077122,0.035166,0.098147,0.089352,0.087396,2
0.040099,0.024111,0.014324,0.008312,0.035517,0.10195,0.092411,0.090546,2
0.041732,0.02472,0.015082,0.0088807,0.036171,0.10579,0.095798,0.093986,2
0.044266,0.025486,0.016315,0.0094466,0.036707,0.10813,0.099637,0.098865,2
0.045921,0.026056,0.01659,0.010589,0.038582,0.11136,0.10182,0.10212,2
0.046307,0.022161,0.015683,0.011191,0.039112,0.11289,0.10475,0.10555,2
0.048125,0.015968,0.012903,0.011365,0.039598,0.11351,0.10522,0.10727,2
0.048112,0.016991,0.013673,0.012563,0.040812,0.1165,0.10828,0.10946,2
0.049214,0.018907,0.013233,0.013027,0.04157,0.11831,0.10956,0.11069,2
0.050373,0.019669,0.014108,0.013723,0.041952,0.11936,0.11178,0.11479,2
0.052175,0.024434,0.016214,0.013874,0.041867,0.11957,0.1123,0.11738,2
0.052978,0.028683,0.018267,0.014062,0.042472,0.11926,0.11352,0.1202,2
0.054802,0.030118,0.018743,0.014658,0.042632,0.11913,0.11445,0.12034,2
0.05448,0.032292,0.018921,0.014518,0.043316,0.11969,0.11521,0.12127,2
0.054203,0.035358,0.019872,0.014314,0.043415,0.11908,0.11447,0.1211,2
0.055862,0.036666,0.019677,0.014225,0.043536,0.11926,0.11413,0.12355,2
0.056813,0.038382,0.019706,0.014447,0.04354,0.12,0.11345,0.12368,2
0.054925,0.038938,0.019816,0.01409,0.042528,0.11777,0.11203,0.12168,2
0.054865,0.042066,0.020848,0.013856,0.042292,0.11611,0.11067,0.12115,2
0.054849,0.045605,0.022056,0.013599,0.042013,0.11434,0.10922,0.12044,2
0.054901,0.049583,0.023454,0.013323,0.041693,0.11247,0.10769,0.11957,2
0.055046,0.054025,0.025053,0.013037,0.041334,0.11055,0.10613,0.11854,2
0.055306,0.058956,0.026866,0.012745,0.04094,0.1086,0.10455,0.11738,2
0.055705,0.064405,0.028906,0.012454,0.040514,0.10665,0.103,0.11609,2
0.056268,0.070395,0.031184,0.012172,0.040059,0.10474,0.1015,0.11469,2
0.057017,0.076954,0.033714,0.011903,0.039578,0.10289,0.10007,0.11319,2
0.057976,0.084108,0.036508,0.011655,0.039073,0.10113,0.098756,0.11161,2
0.059169,0.091883,0.039577,0.011433,0.038548,0.099493,0.097577,0.10996,2
0.06062,0.1003,0.042936,0.011245,0.038006,0.09801,0.096565,0.10825,2
0.062352,0.1094,0.046595,0.011097,0.037449,0.096711,0.095749,0.1065,2
0.064389,0.11919,0.050568,0.010994,0.036881,0.095625,0.095159,0.10472,2
0.066755,0.12971,0.054867,0.010944,0.036305,0.094782,0.094824,0.10292,2
0.069473,0.14098,0.059504,0.010953,0.035724,0.094213,0.094774,0.10112,2
0.072567,0.15303,0.064493,0.011026,0.03514,0.093948,0.095037,0.099329,3
0.076061,0.16588,0.069844,0.011172,0.034556,0.094017,0.095643,0.097564,3
0.079978,0.17956,0.075571,0.011395,0.033977,0.09445,0.096622,0.095837,3
0.084342,0.1941,0.081687,0.011702,0.033404,0.095277,0.098003,0.094161,3
0.089177,0.20952,0.088203,0.0121,0.03284,0.096529,0.099815,0.092551,3
