-0.03118,-0.33949,0.96699,-0.30181,-0.030446,0.039383,1.0002,-0.0076653,-0.10809,2
-0.033701,-0.3347,0.96809,-0.1866,-0.0089648,0.032401,1.0002,-0.0086475,-0.10654,2
-0.035954,-0.33008,0.96932,-0.088501,0.0092389,0.025583,1.0002,-0.0095411,-0.10502,2
-0.037942,-0.3257,0.97064,-0.0066448,0.024329,0.018951,1.0001,-0.010348,-0.10356,2
-0.039672,-0.32157,0.97201,0.059826,0.036469,0.012526,1,-0.011068,-0.10216,2
-0.04115,-0.31775,0.97341,0.11177,0.045824,0.0063293,0.99991,-0.011705,-0.10085,2
-0.042379,-0.31428,0.97479,0.15005,0.052556,0.00038258,0.99974,-0.012258,-0.099645,2
-0.043367,-0.31119,0.97612,0.17552,0.056829,-0.0052927,0.99955,-0.012731,-0.098554,2
-0.044118,-0.30854,0.97737,0.18905,0.058808,-0.010675,0.99934,-0.013123,-0.097599,2
-0.044638,-0.30635,0.9785,0.19149,0.058656,-0.015743,0.9991,-0.013437,-0.096794,2
-0.044932,-0.30467,0.97948,0.18371,0.056537,-0.020475,0.99884,-0.013673,-0.096158,2
-0.045006,-0.30355,0.98027,0.16656,0.052615,-0.024849,0.99857,-0.013834,-0.095706,2
-0.044865,-0.30302,0.98084,0.1409,0.047053,-0.028845,0.99828,-0.013921,-0.095455,2
-0.044514,-0.30312,0.98115,0.10759,0.040015,-0.03244,0.99799,-0.013935,-0.095422,2
-0.043959,-0.3039,0.98117,0.067496,0.031666,-0.035613,0.99769,-0.013877,-0.095624,2
-0.043206,-0.30539,0.98086,0.021475,0.022168,-0.038343,0.99739,-0.01375,-0.096076,2
-0.04226,-0.30764,0.98019,-0.029614,0.011686,-0.040608,0.99709,-0.013554,-0.096795,2
-0.041126,-0.31069,0.97913,-0.084911,0.00038379,-0.042387,0.99679,-0.013291,-0.097798,2
-0.039809,-0.31457,0.97763,-0.14356,-0.011576,-0.043658,0.9965,-0.012962,-0.099102,2
-0.038316,-0.31934,0.97567,-0.20469,-0.024028,-0.044399,0.99622,-0.01257,-0.10072,2
-0.036651,-0.32503,0.9732,-0.26745,-0.036809,-0.04459,0.99595,-0.012114,-0.10268,2
-0.034686,-0.33288,0.96947,-0.31372,-0.049115,-0.046506,0.99588,-0.011559,-0.10545,2
-0.032197,-0.34157,0.96502,-0.36012,-0.06183,-0.047064,0.99584,-0.010892,-0.10866,2
-0.029881,-0.35166,0.95965,-0.40806,-0.069993,-0.045872,0.99584,-0.010132,-0.11233,2
-0.027152,-0.3632,0.9548,-0.44381,-0.073793,-0.040981,0.99588,-0.0093269,-0.1164,2
-0.02455,-0.37656,0.94911,-0.49326,-0.087376,-0.036467,0.99593,-0.0084844,-0.12085,2
-0.021433,-0.39138,0.94212,-0.5397,-0.099678,-0.032225,0.99597,-0.0075577,-0.12573,2
-0.018267,-0.40641,0.93436,-0.57949,-0.1097,-0.028457,0.99601,-0.0065602,-0.13098,2
-0.015332,-0.42134,0.92576,-0.60792,-0.11959,-0.022891,0.99605,-0.005516,-0.13658,2
-0.011913,-0.43763,0.91653,-0.64196,-0.12937,-0.012902,0.99605,-0.0044254,-0.14254,2
-0.0084259,-0.45488,0.90627,-0.67365,-0.13428,-0.0035453,0.99605,-0.0033151,-0.14883,2
-0.0050269,-0.47377,0.89581,-0.71399,-0.13675,0.0079131,0.99603,-0.0022233,-0.15542,2
-0.0025177,-0.49286,0.88534,-0.75224,-0.13722,0.020909,0.99598,-0.0012136,-0.16224,2
-0.00018092,-0.51238,0.87484,-0.77616,-0.13743,0.027277,0.99592,-0.00027297,-0.16927,3
0.0021536,-0.53175,0.86363,-0.77863,-0.13731,0.030166,0.9958,0.00061991,-0.17638,3
0.0042113,-0.55037,0.85188,-0.77429,-0.13429,0.039132,0.99559,0.0014321,-0.18346,3
0.0068658,-0.569,0.83999,-0.76479,-0.1275,0.051886,0.99529,0.0021437,-0.19055,3
0.0091927,-0.58743,0.82843,-0.74953,-0.12496,0.059115,0.99488,0.0027548,-0.19761,3
0.011445,-0.60579,0.81573,-0.73649,-0.12625,0.063467,0.99435,0.0033442,-0.2046,3
0.013214,-0.62444,0.80297,-0.73589,-0.12839,0.068082,0.99375,0.0039315,-0.21154,3
0.015138,-0.64152,0.79011,-0.71386,-0.12534,0.07666,0.99309,0.0045113,-0.21834,3
0.01677,-0.65915,0.77719,-0.70212,-0.116,0.099251,0.99239,0.0049531,-0.22503,3
0.017465,-0.67639,0.76415,-0.69241,-0.10148,0.12523,0.99164,0.0051486,-0.2316,3
0.017468,-0.69232,0.75056,-0.68293,-0.093317,0.14445,0.99083,0.0051227,-0.23805,3
0.017102,-0.70651,0.73595,-0.67054,-0.088399,0.15529,0.98988,0.0049238,-0.24435,3
0.015941,-0.71921,0.72136,-0.66005,-0.082814,0.16056,0.98879,0.0046055,-0.25054,3
0.014907,-0.73276,0.70619,-0.65857,-0.078914,0.16794,0.98753,0.0041911,-0.25677,3
0.012692,-0.74545,0.69071,-0.66933,-0.075505,0.17628,0.98613,0.0036394,-0.263,3
0.010369,-0.75794,0.67412,-0.68196,-0.068988,0.19145,0.9846,0.0029065,-0.26932,3
0.0072589,-0.77078,0.65695,-0.6893,-0.063914,0.20844,0.98292,0.0019518,-0.27585,3
0.0034001,-0.78292,0.63865,-0.71042,-0.062964,0.2274,0.98108,0.00078809,-0.28263,3
-0.00080723,-0.7958,0.62036,-0.72941,-0.065012,0.23963,0.97912,-0.00055865,-0.28967,3
-0.0041738,-0.8094,0.60148,-0.75913,-0.066769,0.25667,0.97705,-0.0020184,-0.29698,3
-0.0092192,-0.82279,0.58044,-0.80079,-0.064624,0.28059,0.97499,-0.0036668,-0.30463,3
-0.014694,-0.83618,0.55743,-0.85671,-0.073228,0.29547,0.97292,-0.0054685,-0.31276,3
-0.02076,-0.84815,0.53251,-0.90974,-0.078226,0.30881,0.97088,-0.0073909,-0.32136,3
-0.027349,-0.86064,0.50695,-0.96844,-0.081585,0.32239,0.96886,-0.0094635,-0.3304,3
-0.034464,-0.87271,0.48037,-0.99953,-0.07599,0.34066,0.96687,-0.011707,-0.33973,3
-0.042133,-0.88331,0.45187,-1.013,-0.064959,0.36097,0.965,-0.014187,-0.34919,3
-0.050453,-0.8946,0.42348,-1.0327,-0.060683,0.37304,0.9632,-0.016846,-0.35889,3
-0.059274,-0.90462,0.39433,-1.044,-0.054866,0.37873,0.96152,-0.019597,-0.36876,3
-0.068062,-0.91363,0.36402,-1.056,-0.050019,0.38702,0.95993,-0.022444,-0.37879,3
-0.077419,-0.92277,0.33339,-1.0633,-0.038118,0.39682,0.95848,-0.025404,-0.38897,3
-0.087071,-0.93152,0.30292,-1.0653,-0.025942,0.4031,0.95718,-0.028474,-0.39919,3
-0.096701,-0.9395,0.27271,-1.0561,-0.014598,0.40688,0.95605,-0.03164,-0.40936,3
-0.10696,-0.94695,0.2423,-1.0602,-0.010126,0.40713,0.95506,-0.034839,-0.41945,3
-0.11693,-0.95345,0.21173,-1.0591,-0.0022064,0.40215,0.95418,-0.038027,-0.4295,3
-0.12734,-0.95863,0.18164,-1.0465,0.0071581,0.39613,0.95346,-0.041214,-0.43938,3
-0.13717,-0.96367,0.15276,-1.0128,0.015936,0.39092,0.95288,-0.044387,-0.449,3
-0.14644,-0.96838,0.12514,-0.96227,0.023713,0.37951,0.95245,-0.047508,-0.45819,3
-0.15586,-0.97224,0.099199,-0.90159,0.027993,0.36409,0.95216,-0.050547,-0.46683,3
-0.1648,-0.97522,0.075323,-0.83779,0.030061,0.3473,0.95198,-0.053469,-0.47486,3
-0.17345,-0.97669,0.053143,-0.75377,0.02838,0.32547,0.95189,-0.056233,-0.48222,3
-0.18084,-0.97795,0.032862,-0.6601,0.026685,0.29885,0.95189,-0.058774,-0.4889,3
-0.18797,-0.97863,0.014645,-0.57892,0.02721,0.27458,0.95199,-0.061099,-0.49487,3
-0.1945,-0.97834,-0.001825,-0.50388,0.032469,0.25507,0.95218,-0.063245,-0.50012,3
-0.20042,-0.9786,-0.015741,-0.42875,0.038168,0.23411,0.95246,-0.065232,-0.50472,4
-0.20597,-0.97872,-0.027513,-0.36161,0.040481,0.2084,0.95284,-0.067027,-0.50862,4
-0.21048,-0.97883,-0.037599,-0.29924,0.037261,0.18019,0.95327,-0.068578,-0.51188,4
-0.21448,-0.97852,-0.044856,-0.2267,0.030947,0.15169,0.95368,-0.069882,-0.51449,4
-0.21754,-0.9779,-0.050699,-0.145,0.029699,0.1328,0.95407,-0.070987,-0.51635,4
-0.22069,-0.97787,-0.054123,-0.09012,0.033465,0.12254,0.95447,-0.072008,-0.51755,4
-0.22354,-0.97777,-0.055801,-0.031248,0.032663,0.10266,0.95485,-0.072916,-0.51814,4
-0.22537,-0.97657,-0.055979,0.036484,0.024389,0.075191,0.9552,-0.073579,-0.5181,4
-0.22633,-0.97546,-0.0544,0.10901,0.018252,0.049446,0.95549,-0.073992,-0.51745,4
-0.22696,-0.97499,-0.050704,0.17185,0.015144,0.029105,0.95574,-0.074185,-0.51624,4
-0.22682,-0.97507,-0.045158,0.23083,0.0082843,0.01303,0.95594,-0.074202,-0.51454,4
-0.22654,-0.97463,-0.037937,0.29672,0.0043445,-0.0062542,0.9561,-0.074066,-0.51224,4
-0.22543,-0.97399,-0.029759,0.34853,-0.0087329,-0.026149,0.95616,-0.073746,-0.50947,4
-0.22296,-0.97393,-0.019807,0.40438,-0.024665,-0.049305,0.95607,-0.073172,-0.50633,4
-0.22043,-0.97484,-0.0080777,0.45734,-0.031786,-0.066609,0.9559,-0.072399,-0.50277,4
-0.21711,-0.97634,0.0053084,0.50987,-0.034575,-0.086411,0.95567,-0.071453,-0.49872,4
-0.21313,-0.97671,0.018819,0.5392,-0.034665,-0.093671,0.95544,-0.070376,-0.49427,1
-0.2105,-0.97565,0.03211,0.56299,-0.035207,-0.10054,0.95524,-0.069279,-0.48959,1
-0.20657,-0.97491,0.046939,0.59366,-0.041441,-0.11513,0.955,-0.068072,-0.48472,1
-0.20298,-0.97389,0.062662,0.62683,-0.032747,-0.1167,0.95481,-0.066807,-0.4796,1
-0.1993,-0.97411,0.079545,0.64788,-0.027987,-0.11899,0.95467,-0.065546,-0.47427,1
-0.19517,-0.97342,0.096634,0.675,-0.021899,-0.11769,0.95461,-0.064287,-0.46869,1
-0.1911,-0.97221,0.11373,0.69333,-0.018103,-0.12098,0.9546,-0.063015,-0.46294,1
-0.187,-0.97063,0.13206,0.70738,-0.016807,-0.12824,0.95461,-0.061673,-0.45706,1
-0.18279,-0.96768,0.15044,0.73244,-0.0097815,-0.12868,0.95467,-0.060299,-0.45094,1
-0.1786,-0.96534,0.16921,0.74168,-0.0028412,-0.12499,0.9548,-0.058944,-0.44473,1
-0.17458,-0.96292,0.18917,0.75523,0.0059314,-0.12497,0.95502,-0.05762,-0.43839,1
-0.17041,-0.95939,0.20961,0.77271,0.014754,-0.12739,0.95534,-0.056305,-0.43185,1
-0.16637,-0.95567,0.23028,0.78245,0.024625,-0.12615,0.95575,-0.05503,-0.42517,1
-0.16293,-0.95147,0.25125,0.78551,0.035547,-0.12587,0.95626,-0.053815,-0.41839,1
-0.15924,-0.94681,0.27214,0.79125,0.045282,-0.12491,0.95685,-0.05266,-0.41154,1
-0.15608,-0.9416,0.29345,0.81933,0.059509,-0.12136,0.95755,-0.051579,-0.40457,1
-0.15297,-0.93601,0.31527,0.85623,0.070973,-0.11669,0.95836,-0.050609,-0.3974,1
-0.15029,-0.92957,0.33772,0.88298,0.074031,-0.11587,0.95923,-0.049709,-0.39,1
-0.14786,-0.92263,0.36051,0.88491,0.071043,-0.11296,0.96011,-0.048843,-0.38249,1
-0.14523,-0.91521,0.38317,0.89237,0.06724,-0.10811,0.96099,-0.04799,-0.37489,1
-0.14277,-0.9078,0.40599,0.88623,0.060792,-0.10524,0.96185,-0.047146,-0.36727,1
-0.14053,-0.89948,0.42851,0.88472,0.058779,-0.10078,0.9627,-0.046314,-0.35961,1
-0.13835,-0.89044,0.45096,0.86967,0.054695,-0.091677,0.96354,-0.045532,-0.35195,1
-0.13607,-0.88039,0.47249,0.86771,0.051498,-0.082144,0.96434,-0.044804,-0.34428,1
-0.13432,-0.86955,0.49388,0.86553,0.045984,-0.0728,0.96509,-0.044137,-0.33664,1
-0.13224,-0.8586,0.51481,0.84982,0.035787,-0.06299,0.96575,-0.043498,-0.3291,1
-0.13047,-0.84778,0.53539,0.83729,0.027501,-0.054374,0.9663,-0.0429,-0.32167,1
-0.12902,-0.83668,0.55569,0.83077,0.026377,-0.04392,0.96677,-0.042371,-0.31431,1
-0.12767,-0.82523,0.57511,0.81419,0.027227,-0.029874,0.96723,-0.041928,-0.30694,1
-0.12716,-0.81258,0.59408,0.81337,0.038584,-0.02113,0.96768,-0.04161,-0.29962,1
-0.12635,-0.79898,0.61289,0.82883,0.04898,-0.020433,0.9682,-0.041392,-0.29224,1
-0.12583,-0.78434,0.63145,0.84827,0.055633,-0.022721,0.96879,-0.04125,-0.28477,1
-0.12553,-0.76899,0.64995,0.87279,0.063975,-0.027725,0.96945,-0.041181,-0.27721,1
-0.12558,-0.7531,0.66866,0.89938,0.073552,-0.036342,0.97026,-0.041172,-0.26947,1
-0.12588,-0.73645,0.68724,0.92925,0.085893,-0.044505,0.97119,-0.041229,-0.26151,1
-0.12649,-0.71927,0.70554,0.95433,0.098739,-0.054973,0.97223,-0.04137,-0.25335,1
-0.12706,-0.70097,0.72358,0.97381,0.10663,-0.062163,0.97332,-0.041567,-0.24508,1
-0.12787,-0.68237,0.74156,0.99436,0.118,-0.069635,0.97443,-0.041837,-0.23671,1
-0.12934,-0.66274,0.75912,1,0.13264,-0.077474,0.97559,-0.042206,-0.22823,1
-0.13067,-0.642,0.77591,0.99752,0.14257,-0.082259,0.97681,-0.042664,-0.21969,1
-0.13233,-0.62152,0.79209,0.98137,0.14843,-0.084944,0.97805,-0.043195,-0.21125,1
-0.13444,-0.6004,0.80758,0.96159,0.15382,-0.088652,0.97929,-0.043787,-0.20296,1
-0.13612,-0.57965,0.82264,0.9418,0.15817,-0.091272,0.98054,-0.044408,-0.19484,1
-0.13882,-0.55975,0.83688,0.90975,0.16197,-0.093505,0.98177,-0.045079,-0.18694,1
-0.14099,-0.53979,0.85022,0.87803,0.1614,-0.09446,0.98297,-0.045786,-0.17926,1
-0.14321,-0.52022,0.86267,0.84961,0.16204,-0.092776,0.98417,-0.046518,-0.17176,1
-0.14561,-0.50018,0.87467,0.82875,0.16831,-0.091629,0.98539,-0.047294,-0.16443,1
-0.14817,-0.47921,0.88568,0.81611,0.17636,-0.088727,0.98661,-0.048146,-0.15724,1
-0.15125,-0.45866,0.89573,0.79404,0.18641,-0.086962,0.98781,-0.049073,-0.15032,1
-0.15417,-0.44097,0.9059,0.75233,0.19093,-0.085689,0.98897,-0.050025,-0.14387,1
-0.15761,-0.42524,0.91606,0.69552,0.19531,-0.085224,0.99017,-0.051002,-0.13788,1
-0.16081,-0.41108,0.92451,0.60938,0.1946,-0.082596,0.99142,-0.051984,-0.13243,1
-0.16449,-0.39874,0.9319,0.52904,0.19254,-0.07888,0.9927,-0.052975,-0.12764,1
-0.16796,-0.38866,0.93845,0.44228,0.18368,-0.07716,0.99396,-0.053927,-0.12361,1
-0.17097,-0.38082,0.94442,0.35315,0.16941,-0.073212,0.9952,-0.054797,-0.12032,1
-0.17371,-0.37525,0.94916,0.2559,0.14901,-0.069432,0.99637,-0.055537,-0.11776,2
-0.17597,-0.37134,0.95245,0.15026,0.12006,-0.066353,0.99743,-0.056117,-0.11598,2
-0.17741,-0.36935,0.9547,0.045666,0.085977,-0.06385,0.99834,-0.056474,-0.11506,2
-0.17824,-0.37002,0.95492,-0.069579,0.051918,-0.057467,0.99907,-0.056594,-0.11509,2
-0.17819,-0.37347,0.95399,-0.18297,0.019559,-0.04972,0.99962,-0.056499,-0.1161,2
-0.17773,-0.37936,0.95119,-0.2893,-0.0077438,-0.039948,1,-0.056239,-0.11805,2
-0.17675,-0.38796,0.94724,-0.38707,-0.036411,-0.029823,1.0002,-0.055822,-0.1209,2
-0.17492,-0.39914,0.94186,-0.50347,-0.067033,-0.022146,1.0003,-0.055221,-0.12463,2
-0.17253,-0.41207,0.93473,-0.60166,-0.093713,-0.015886,1.0001,-0.05444,-0.12922,2
-0.16982,-0.4269,0.92606,-0.68369,-0.11693,-0.007514,0.99986,-0.053507,-0.13459,2
-0.16639,-0.44368,0.91603,-0.76525,-0.14049,-0.00066988,0.99945,-0.052429,-0.14066,2
-0.16273,-0.46183,0.90511,-0.8337,-0.15923,0.0011808,0.99892,-0.051217,-0.14737,3
-0.15844,-0.4811,0.893,-0.88896,-0.17816,0.0018272,0.99831,-0.049876,-0.15462,3
-0.15397,-0.50163,0.88019,-0.94224,-0.19632,-0.000258,0.99763,-0.048405,-0.16234,3
-0.1493,-0.52285,0.86603,-0.97223,-0.20493,-0.0033563,0.99691,-0.046857,-0.17044,3
-0.14404,-0.54438,0.8516,-1.0092,-0.21961,-0.004936,0.99617,-0.045258,-0.17883,3
-0.13889,-0.56642,0.83575,-1.0402,-0.22931,-0.0028226,0.99537,-0.043628,-0.18754,3
-0.13362,-0.58859,0.81957,-1.0575,-0.23421,-0.0014093,0.99452,-0.041988,-0.19647,3
-0.12827,-0.61117,0.80229,-1.0711,-0.24186,-0.00020586,0.99362,-0.040351,-0.20553,3
-0.12312,-0.63354,0.78449,-1.083,-0.24677,0.0019531,0.99258,-0.038719,-0.21471,3
-0.11777,-0.65579,0.76621,-1.0872,-0.25113,0.0032276,0.99141,-0.0371,-0.22393,3
-0.11225,-0.67735,0.74732,-1.0838,-0.25533,0.0046765,0.99013,-0.035493,-0.23313,3
-0.10699,-0.6982,0.72833,-1.0843,-0.25567,0.0048596,0.98874,-0.033921,-0.24226,3
-0.10179,-0.71871,0.70897,-1.0799,-0.25878,0.007321,0.98727,-0.032381,-0.25134,3
-0.096645,-0.73849,0.68916,-1.0627,-0.25986,0.0080005,0.98574,-0.030838,-0.26029,3
-0.091533,-0.75719,0.66963,-1.0316,-0.25854,0.0073475,0.98415,-0.029311,-0.26906,3
-0.08669,-0.7745,0.65053,-0.98871,-0.25207,0.0042817,0.98252,-0.02781,-0.27753,3
-0.081628,-0.79072,0.63113,-0.94031,-0.24695,-0.0010674,0.98088,-0.026314,-0.28558,3
-0.076827,-0.80601,0.61173,-0.90173,-0.24454,-0.0024317,0.97918,-0.024837,-0.29336,3
-0.072096,-0.8188,0.5922,-0.85294,-0.24177,0.0038249,0.97741,-0.023436,-0.3009,3
-0.067414,-0.83053,0.57255,-0.81427,-0.24083,0.014989,0.97556,-0.022169,-0.30818,3
-0.064061,-0.84104,0.55235,-0.78032,-0.23198,0.035935,0.97362,-0.021145,-0.31526,3
-0.061588,-0.85212,0.5332,-0.7726,-0.23082,0.049367,0.97156,-0.020355,-0.32226,3
-0.058803,-0.86374,0.51378,-0.77559,-0.23237,0.057994,0.96939,-0.019677,-0.32929,3
-0.057328,-0.87577,0.49458,-0.78898,-0.23592,0.069896,0.96719,-0.019151,-0.33637,3
-0.055692,-0.88662,0.47485,-0.80903,-0.24524,0.067966,0.96496,-0.018716,-0.34343,3
-0.054128,-0.89565,0.45392,-0.8115,-0.24194,0.081261,0.96271,-0.018379,-0.35051,3
-0.054624,-0.90393,0.43297,-0.78647,-0.22533,0.10255,0.96054,-0.018296,-0.35755,3
-0.055342,-0.9124,0.41226,-0.78982,-0.21608,0.12279,0.95845,-0.018434,-0.36461,3
-0.056461,-0.92034,0.39184,-0.80319,-0.2073,0.13831,0.95642,-0.01877,-0.37166,3
-0.058257,-0.92723,0.37019,-0.81436,-0.19778,0.15583,0.95445,-0.019285,-0.37878,3
-0.060947,-0.93322,0.34827,-0.81767,-0.18408,0.17175,0.95256,-0.020004,-0.38602,3
-0.064155,-0.93934,0.32633,-0.80994,-0.1702,0.18999,0.95075,-0.020919,-0.39329,3
-0.067735,-0.94571,0.3043,-0.80876,-0.15876,0.20502,0.94902,-0.022017,-0.40056,3
-0.071524,-0.95069,0.28178,-0.79581,-0.14924,0.21445,0.94736,-0.023258,-0.40782,3
-0.075944,-0.95462,0.25793,-0.78616,-0.13623,0.22217,0.94579,-0.024608,-0.41508,3
-0.080869,-0.95762,0.23435,-0.78453,-0.11909,0.2322,0.94436,-0.026062,-0.42238,3
-0.086277,-0.96092,0.21057,-0.77867,-0.092979,0.24572,0.94313,-0.027667,-0.42969,3
-0.092151,-0.96473,0.18844,-0.74269,-0.070276,0.25445,0.9421,-0.029445,-0.43685,3
-0.09793,-0.96919,0.16786,-0.70183,-0.055895,0.25707,0.94123,-0.031314,-0.44371,3
-0.10387,-0.97292,0.14874,-0.67364,-0.048808,0.25225,0.94047,-0.033191,-0.45023,3
-0.1095,-0.97612,0.13067,-0.63161,-0.044713,0.24439,0.93976,-0.035031,-0.45636,3
-0.11506,-0.97958,0.11356,-0.57549,-0.044475,0.2398,0.93907,-0.036833,-0.46206,3
-0.12062,-0.9839,0.098328,-0.53167,-0.042637,0.22966,0.93841,-0.038587,-0.46732,3
-0.12591,-0.98697,0.084022,-0.48395,-0.033355,0.22233,0.9378,-0.040313,-0.47197,3
-0.1312,-0.98931,0.071761,-0.42845,-0.017605,0.21511,0.9373,-0.042019,-0.47608,4
-0.13619,-0.99088,0.061044,-0.36134,0.00023724,0.20716,0.93693,-0.043701,-0.47958,4
-0.14071,-0.99254,0.052951,-0.28503,0.011268,0.19714,0.93668,-0.045333,-0.48245,4
-0.14557,-0.99454,0.046974,-0.21573,0.021017,0.18085,0.93657,-0.046884,-0.48466,4
-0.14988,-0.99634,0.043482,-0.14952,0.025995,0.15636,0.93655,-0.048277,-0.48619,4
-0.15296,-0.99788,0.042023,-0.077557,0.023982,0.12427,0.93659,-0.049411,-0.48701,4
-0.15501,-0.99876,0.042782,0.0095862,0.019885,0.090751,0.93665,-0.050241,-0.48705,4
-0.15651,-0.99867,0.046221,0.10315,0.016244,0.055908,0.93675,-0.05075,-0.48625,4
-0.15689,-0.99792,0.05184,0.20292,0.012156,0.021392,0.93689,-0.050946,-0.48455,4
-0.15641,-0.99691,0.060265,0.29817,0.012112,-0.010393,0.93707,-0.050836,-0.48205,4
-0.15511,-0.99572,0.070946,0.38372,0.010661,-0.036968,0.9373,-0.050477,-0.47878,4
-0.15312,-0.99405,0.083719,0.45265,0.0090576,-0.061679,0.93756,-0.049893,-0.47479,4
-0.15023,-0.99152,0.097936,0.51354,0.00063428,-0.079961,0.93779,-0.049114,-0.47019,1
-0.14693,-0.98895,0.11341,0.56145,-0.0079556,-0.088196,0.93796,-0.048203,-0.4652,1
-0.14399,-0.98564,0.13039,0.5861,-0.013087,-0.095381,0.93809,-0.04724,-0.45984,1
-0.14034,-0.98293,0.14823,0.60616,-0.018443,-0.101,0.93819,-0.046232,-0.45412,1
-0.13728,-0.98004,0.16703,0.63187,-0.018845,-0.10766,0.93826,-0.045187,-0.4481,1
-0.13311,-0.97678,0.18709,0.63903,-0.023928,-0.1241,0.93831,-0.044029,-0.4419,1
-0.12858,-0.97249,0.20591,0.65736,-0.023051,-0.13141,0.93835,-0.042766,-0.43561,1
-0.12484,-0.96853,0.2255,0.66403,-0.021461,-0.13456,0.93843,-0.041505,-0.42929,1
-0.12032,-0.96445,0.24504,0.67582,-0.018516,-0.135,0.93852,-0.040225,-0.42289,1
-0.11693,-0.96002,0.2642,0.6901,-0.00082191,-0.11399,0.93871,-0.039062,-0.41646,1
-0.11443,-0.95551,0.28329,0.68893,0.010022,-0.10203,0.93901,-0.038078,-0.40999,1
-0.11149,-0.95114,0.30263,0.66801,0.012941,-0.095524,0.93931,-0.037161,-0.40363,1
-0.10887,-0.94613,0.32108,0.64923,0.018706,-0.088957,0.93964,-0.036322,-0.39744,1
-0.10665,-0.9401,0.33824,0.63737,0.025424,-0.07898,0.93999,-0.035567,-0.39142,1
-0.10459,-0.9344,0.35492,0.61762,0.033376,-0.067173,0.94039,-0.034913,-0.38563,1
-0.10274,-0.92892,0.37059,0.60225,0.041125,-0.053136,0.94081,-0.034379,-0.38007,1
-0.10117,-0.92239,0.38525,0.58502,0.051581,-0.043627,0.94127,-0.033966,-0.3747,1
-0.10071,-0.91558,0.399,0.55993,0.065354,-0.029549,0.9418,-0.033689,-0.36963,1
-0.10089,-0.90946,0.41207,0.52767,0.079164,-0.010966,0.94242,-0.033588,-0.36486,1
-0.10112,-0.90389,0.42547,0.50359,0.090051,0.0032958,0.94311,-0.033644,-0.36031,1
-0.1016,-0.90005,0.43864,0.48206,0.097926,0.015747,0.94383,-0.033851,-0.356,1
-0.102,-0.89588,0.45204,0.4741,0.099222,0.014726,0.94457,-0.034131,-0.35177,1
-0.10255,-0.89072,0.4641,0.46843,0.09983,0.017051,0.94529,-0.034456,-0.34758,1
-0.10417,-0.88498,0.47561,0.4578,0.10638,0.022555,0.94601,-0.034871,-0.34349,1
-0.10587,-0.87935,0.4865,0.46131,0.11285,0.036126,0.94671,-0.035423,-0.33949,1
-0.10799,-0.87438,0.49739,0.44567,0.11717,0.053735,0.94737,-0.036126,-0.33565,1
-0.11086,-0.86874,0.50806,0.42799,0.12694,0.063184,0.94806,-0.036964,-0.33187,1
-0.11396,-0.86205,0.5175,0.41962,0.13158,0.076237,0.94875,-0.037905,-0.32812,1
-0.11685,-0.85538,0.52692,0.42653,0.14014,0.082775,0.94946,-0.038924,-0.32447,1
-0.11997,-0.84978,0.53701,0.43488,0.13982,0.083897,0.95022,-0.039984,-0.32085,1
-0.12317,-0.84475,0.54769,0.44281,0.12701,0.077386,0.95095,-0.040981,-0.3172,1
-0.12632,-0.83926,0.55854,0.46099,0.11894,0.063247,0.95166,-0.041853,-0.3134,1
-0.12843,-0.83109,0.56916,0.50424,0.1142,0.045364,0.95237,-0.042591,-0.3092,1
-0.13065,-0.82267,0.58043,0.54307,0.12096,0.036325,0.95312,-0.043275,-0.3046,1
-0.13314,-0.81351,0.59285,0.58046,0.13345,0.031717,0.95395,-0.044008,-0.29959,1
-0.13613,-0.80293,0.60618,0.63314,0.15023,0.024383,0.95489,-0.044828,-0.29417,1
-0.13886,-0.79137,0.61992,0.67339,0.16349,0.015671,0.95596,-0.045709,-0.28836,1
-0.14197,-0.7795,0.63467,0.69887,0.17624,0.0090581,0.95714,-0.046641,-0.2823,1
-0.14495,-0.76603,0.64947,0.73075,0.18718,0.0037851,0.95843,-0.047631,-0.27592,1
-0.14833,-0.75124,0.66465,0.74937,0.19448,-0.0021634,0.95979,-0.048668,-0.26929,1
-0.15173,-0.73619,0.67966,0.76538,0.2005,-0.0088447,0.96121,-0.049722,-0.26254,1
-0.15523,-0.72074,0.69453,0.76286,0.20509,-0.016218,0.96268,-0.050778,-0.25573,1
-0.15894,-0.70495,0.70947,0.75366,0.20683,-0.023662,0.96418,-0.05183,-0.24895,1
-0.16212,-0.68908,0.72377,0.76247,0.20812,-0.026973,0.96567,-0.05286,-0.24219,1
-0.16542,-0.67388,0.73806,0.75068,0.20807,-0.030172,0.96716,-0.053895,-0.23549,1
-0.16843,-0.65838,0.7517,0.71961,0.20724,-0.033629,0.96862,-0.054919,-0.22887,1
-0.17182,-0.6403,0.76405,0.73917,0.21719,-0.026822,0.97004,-0.056,-0.22231,1
-0.1758,-0.62576,0.77735,0.72033,0.2174,-0.02535,0.97146,-0.057147,-0.21596,1
-0.17986,-0.61209,0.79014,0.69401,0.20922,-0.027401,0.97286,-0.058275,-0.20983,1
-0.18323,-0.59874,0.80195,0.65029,0.19603,-0.032156,0.97422,-0.059315,-0.20394,1
-0.18649,-0.58626,0.81275,0.59964,0.18004,-0.038184,0.97553,-0.060241,-0.19841,1
-0.18909,-0.57492,0.82276,0.55154,0.16253,-0.040767,0.97678,-0.061039,-0.19333,1
-0.19162,-0.56507,0.8324,0.49423,0.1459,-0.044905,0.97798,-0.061721,-0.1887,1
-0.19346,-0.5551,0.84086,0.4516,0.13157,-0.048117,0.97911,-0.062296,-0.18443,1
-0.19495,-0.54674,0.84848,0.39816,0.11494,-0.048005,0.98018,-0.062749,-0.18068,1
-0.19653,-0.53911,0.85522,0.33197,0.098136,-0.049815,0.98119,-0.063105,-0.17738,1
-0.1976,-0.53251,0.86072,0.265,0.081141,-0.052214,0.98213,-0.063337,-0.17461,2
-0.19859,-0.52784,0.86517,0.1905,0.060259,-0.051742,0.98299,-0.063446,-0.17252,2
-0.19824,-0.52416,0.86758,0.12939,0.038586,-0.054417,0.98374,-0.063397,-0.17106,2
-0.19758,-0.52149,0.86896,0.059119,0.020439,-0.059442,0.98443,-0.06319,-0.17024,2
-0.19682,-0.52138,0.86938,-0.014304,0.0052514,-0.057909,0.98503,-0.062855,-0.17013,2
-0.19579,-0.52216,0.86862,-0.078668,-0.010635,-0.05916,0.98557,-0.062407,-0.17056,2
-0.19435,-0.52422,0.86659,-0.13767,-0.03084,-0.0532,0.98598,-0.06186,-0.17152,2
-0.19271,-0.52758,0.86402,-0.19663,-0.049974,-0.047827,0.98626,-0.061207,-0.17302,2
-0.19024,-0.53256,0.86036,-0.25351,-0.073274,-0.040902,0.98638,-0.060435,-0.17508,2
-0.18726,-0.53903,0.85581,-0.3083,-0.095732,-0.038649,0.98635,-0.059528,-0.17764,2
-0.18402,-0.54702,0.85027,-0.34984,-0.11551,-0.041322,0.98621,-0.058468,-0.18063,2
-0.18027,-0.55599,0.84411,-0.39411,-0.13221,-0.041726,0.98599,-0.057274,-0.18401,2
-0.17598,-0.5657,0.83809,-0.42049,-0.14084,-0.044665,0.98573,-0.055973,-0.1877,2
-0.17165,-0.57649,0.8316,-0.43426,-0.15301,-0.047733,0.98543,-0.054574,-0.1916,2
-0.16716,-0.58702,0.82463,-0.44417,-0.16167,-0.050876,0.98509,-0.053093,-0.19555,2
-0.16252,-0.59674,0.81749,-0.4428,-0.15844,-0.053982,0.98473,-0.051592,-0.19948,2
-0.15792,-0.60611,0.80968,-0.44895,-0.15006,-0.052125,0.98441,-0.050152,-0.20337,2
-0.15376,-0.6168,0.80272,-0.45893,-0.14104,-0.046199,0.98409,-0.048813,-0.20731,2
-0.14975,-0.627,0.79577,-0.46076,-0.13893,-0.047327,0.98376,-0.04753,-0.2113,2
-0.14559,-0.63606,0.78811,-0.4461,-0.13687,-0.050293,0.98343,-0.046255,-0.21525,2
-0.14138,-0.64546,0.7805,-0.45469,-0.13647,-0.048587,0.98308,-0.044981,-0.21922,2
-0.13732,-0.65547,0.77299,-0.46966,-0.13233,-0.04409,0.98271,-0.043746,-0.22331,2
-0.13329,-0.66483,0.76421,-0.48485,-0.13128,-0.039767,0.98229,-0.042565,-0.22745,2
-0.12983,-0.67421,0.75524,-0.49889,-0.12929,-0.035788,0.98181,-0.041422,-0.23169,2
-0.12622,-0.68349,0.74585,-0.4983,-0.12529,-0.031778,0.98128,-0.040317,-0.23599,2
-0.12288,-0.69259,0.73637,-0.50248,-0.12023,-0.024467,0.9807,-0.039275,-0.2403,2
-0.11982,-0.70204,0.72719,-0.50144,-0.11339,-0.016812,0.98009,-0.038325,-0.24462,2
-0.11695,-0.71087,0.71757,-0.49389,-0.10536,-0.0092672,0.97944,-0.037472,-0.24889,2
-0.11419,-0.71969,0.70781,-0.48302,-0.098347,-0.0032728,0.97876,-0.036715,-0.25307,2
-0.11201,-0.72749,0.69727,-0.46607,-0.092899,0.0021595,0.97804,-0.036021,-0.2572,2
-0.11023,-0.736,0.68706,-0.44828,-0.091873,0.007146,0.9773,-0.035383,-0.26138,2
-0.10818,-0.74786,0.67811,-0.4842,-0.10699,0.00082495,0.97653,-0.034696,-0.26568,3
-0.10547,-0.75786,0.6678,-0.49235,-0.11887,-0.0012546,0.97569,-0.03392,-0.26995,3
-0.10264,-0.76679,0.65756,-0.49563,-0.12685,-0.0020527,0.97479,-0.033097,-0.27415,3
-0.10005,-0.77603,0.64773,-0.49225,-0.13103,0.0014714,0.97384,-0.032268,-0.27835,3
-0.097494,-0.78466,0.63782,-0.48652,-0.13171,0.0067046,0.97286,-0.031485,-0.28249,3
-0.095696,-0.79278,0.62812,-0.4844,-0.13274,0.0094182,0.97183,-0.030752,-0.28657,3
-0.092982,-0.80005,0.61739,-0.47295,-0.13486,0.01199,0.97076,-0.030035,-0.29063,3
-0.090706,-0.80772,0.60695,-0.47369,-0.13682,0.015317,0.96969,-0.029327,-0.29474,3
-0.088875,-0.81471,0.5962,-0.46997,-0.13541,0.019144,0.96858,-0.028669,-0.29879,3
-0.0867,-0.82139,0.58524,-0.45643,-0.13348,0.023422,0.96746,-0.028047,-0.30285,3
-0.084774,-0.82824,0.57416,-0.44504,-0.13393,0.02661,0.96634,-0.027473,-0.30693,3
-0.08285,-0.83494,0.56293,-0.44064,-0.1325,0.0281,0.96521,-0.026914,-0.31097,3
-0.081498,-0.84164,0.55212,-0.44688,-0.13061,0.031998,0.96408,-0.026413,-0.31499,3
-0.079826,-0.84861,0.54117,-0.4392,-0.12682,0.036533,0.96295,-0.025952,-0.31895,3
-0.078619,-0.85456,0.5305,-0.41996,-0.12057,0.039565,0.96185,-0.025538,-0.32282,3
-0.077312,-0.86002,0.51992,-0.40624,-0.12,0.043313,0.96076,-0.025166,-0.32665,3
-0.076218,-0.86664,0.50944,-0.41006,-0.12083,0.049763,0.95966,-0.024838,-0.33057,3
-0.075013,-0.87361,0.49865,-0.42396,-0.122,0.054481,0.95852,-0.024563,-0.33462,3
-0.074254,-0.8799,0.48711,-0.42957,-0.12528,0.060831,0.95733,-0.024354,-0.33873,3
-0.073969,-0.88618,0.47551,-0.43532,-0.12499,0.065423,0.95612,-0.02421,-0.34291,3
-0.073598,-0.89219,0.46409,-0.43876,-0.121,0.068996,0.95491,-0.024136,-0.34707,3
-0.073499,-0.8982,0.45284,-0.41894,-0.12162,0.068374,0.9537,-0.024106,-0.35117,3
-0.072469,-0.90445,0.44115,-0.42553,-0.12538,0.066322,0.95242,-0.024043,-0.35527,3
-0.07281,-0.90921,0.42906,-0.42719,-0.11809,0.073109,0.95117,-0.024058,-0.35936,3
-0.07333,-0.91355,0.41746,-0.43845,-0.11809,0.079369,0.94995,-0.024187,-0.36343,3
-0.073552,-0.91791,0.4045,-0.44247,-0.11603,0.077897,0.94871,-0.024358,-0.36762,3
-0.074044,-0.92228,0.39181,-0.44852,-0.10957,0.081467,0.9475,-0.02456,-0.37186,3
-0.074943,-0.92702,0.37849,-0.46436,-0.10458,0.089162,0.94635,-0.024857,-0.37623,3
-0.076069,-0.93153,0.36516,-0.47898,-0.10075,0.093372,0.94525,-0.025237,-0.38071,3
-0.077127,-0.93616,0.3513,-0.50155,-0.098698,0.09489,0.94415,-0.025644,-0.38537,3
-0.078316,-0.93992,0.33599,-0.51602,-0.097587,0.099961,0.94306,-0.026099,-0.39021,3
-0.079896,-0.9435,0.32001,-0.52972,-0.099187,0.10522,0.94198,-0.026615,-0.39521,3
-0.081715,-0.94703,0.30419,-0.52644,-0.098833,0.10799,0.94089,-0.027169,-0.40032,3
-0.083431,-0.9504,0.28821,-0.51777,-0.097512,0.10747,0.9398,-0.027739,-0.40544,3
-0.085151,-0.95447,0.2726,-0.51721,-0.095279,0.10639,0.93873,-0.028317,-0.41057,3
-0.086886,-0.95828,0.25703,-0.49713,-0.088424,0.10536,0.93772,-0.0289,-0.41562,3
-0.088634,-0.96144,0.24117,-0.48567,-0.088243,0.10035,0.93675,-0.02947,-0.42054,3
-0.090194,-0.96447,0.22578,-0.48838,-0.093056,0.094538,0.93577,-0.030003,-0.42543,3
-0.091833,-0.96844,0.21042,-0.51636,-0.10085,0.096429,0.93475,-0.030531,-0.43042,3
-0.093635,-0.97186,0.19556,-0.53073,-0.10222,0.097182,0.93372,-0.031094,-0.43546,3
-0.095384,-0.97436,0.17984,-0.53703,-0.10197,0.10251,0.93271,-0.031704,-0.44053,3
-0.097505,-0.9769,0.16421,-0.54242,-0.10025,0.10676,0.93172,-0.032371,-0.44565,3
-0.099536,-0.97847,0.14816,-0.54217,-0.10126,0.10838,0.93074,-0.033067,-0.45079,3
-0.10152,-0.97981,0.13175,-0.54266,-0.1001,0.11304,0.92976,-0.033791,-0.45597,3
-0.10411,-0.9811,0.11499,-0.54423,-0.096276,0.11709,0.92882,-0.034571,-0.46121,3
-0.10683,-0.98196,0.098347,-0.54609,-0.088744,0.11947,0.92792,-0.035379,-0.46649,3
-0.10937,-0.98298,0.081844,-0.5397,-0.077409,0.126,0.92712,-0.036249,-0.47175,3
-0.11279,-0.98298,0.065764,-0.51874,-0.062644,0.13614,0.92644,-0.037229,-0.4768,3
-0.11647,-0.98333,0.050506,-0.48582,-0.049693,0.14382,0.92589,-0.038317,-0.48163,3
-0.11981,-0.98391,0.036671,-0.44984,-0.041668,0.14242,0.92544,-0.039437,-0.48618,4
-0.1233,-0.98486,0.023734,-0.40699,-0.036176,0.13846,0.92507,-0.040544,-0.4904,4
-0.12687,-0.98508,0.012281,-0.36539,-0.031301,0.13184,0.92477,-0.041606,-0.49418,4
-0.12977,-0.98456,0.0021494,-0.31116,-0.027392,0.12651,0.92452,-0.042626,-0.49753,4
-0.13277,-0.98446,-0.0066552,-0.25792,-0.024715,0.12133,0.92432,-0.043592,-0.50048,4
-0.13572,-0.98465,-0.013795,-0.21848,-0.027628,0.1135,0.92414,-0.044496,-0.50309,4
-0.13781,-0.98467,-0.02005,-0.17645,-0.033986,0.10403,0.92394,-0.045313,-0.5053,4
-0.1399,-0.98585,-0.025183,-0.14311,-0.037914,0.097547,0.9237,-0.046055,-0.50718,4
-0.14198,-0.98625,-0.028701,-0.094979,-0.037636,0.085893,0.92346,-0.046718,-0.50861,4
-0.14392,-0.98647,-0.030846,-0.042651,-0.038123,0.077387,0.92324,-0.047308,-0.50955,4
-0.14546,-0.98666,-0.031404,0.011101,-0.034392,0.066134,0.92306,-0.047809,-0.50999,4
-0.14628,-0.98694,-0.030491,0.057321,-0.034638,0.058324,0.9229,-0.048225,-0.50994,4
-0.14733,-0.98676,-0.028651,0.099681,-0.037816,0.050728,0.92273,-0.048557,-0.5095,4
-0.14741,-0.98724,-0.026425,0.11998,-0.03915,0.043857,0.92254,-0.0488,-0.5088,4
-0.14873,-0.98648,-0.022866,0.16695,-0.033362,0.035979,0.9224,-0.049017,-0.5077,4
-0.14904,-0.98664,-0.017918,0.19927,-0.037753,0.021567,0.92227,-0.049119,-0.50624,4
-0.14864,-0.98655,-0.012764,0.24026,-0.034379,0.0061344,0.92213,-0.049068,-0.50447,4
-0.1485,-0.98657,-0.0057437,0.27682,-0.026492,0.0018308,0.92207,-0.048937,-0.50234,4
-0.14811,-0.98709,0.0020138,0.30116,-0.023989,-0.0064336,0.92205,-0.04877,-0.49997,4
-0.14733,-0.98625,0.010372,0.32884,-0.020637,-0.019481,0.92205,-0.048493,-0.49732,4
-0.146,-0.98523,0.018635,0.35803,-0.017419,-0.028097,0.92205,-0.048114,-0.49448,4
-0.14486,-0.98455,0.027897,0.38392,-0.014381,-0.033271,0.92207,-0.047681,-0.49146,4
-0.14346,-0.98534,0.038314,0.40098,-0.015691,-0.046772,0.92211,-0.047158,-0.48833,4
-0.14128,-0.98646,0.049194,0.41908,-0.017835,-0.06369,0.92213,-0.046482,-0.48498,4
-0.13878,-0.98735,0.060574,0.43662,-0.015521,-0.077831,0.92216,-0.045666,-0.4814,4
-0.13607,-0.98777,0.072385,0.44494,-0.012453,-0.089431,0.92223,-0.044746,-0.47761,4
-0.13309,-0.98718,0.08451,0.4492,-0.010736,-0.096364,0.92233,-0.043765,-0.47367,4
-0.12993,-0.98703,0.096755,0.4272,-0.016273,-0.10309,0.9224,-0.042735,-0.46978,4
-0.12631,-0.98701,0.10867,0.40724,-0.018793,-0.1039,0.92244,-0.041666,-0.46605,4
-0.12298,-0.98682,0.11974,0.3842,-0.014901,-0.099096,0.92248,-0.040613,-0.46249,4
-0.11965,-0.98609,0.1299,0.37841,-0.0056729,-0.095755,0.9226,-0.039603,-0.45906,4
-0.11619,-0.98515,0.13981,0.36995,0.00093666,-0.091971,0.92276,-0.038618,-0.4557,4
-0.11325,-0.98415,0.15013,0.36485,0.0090903,-0.089372,0.92297,-0.037665,-0.45235,4
-0.11051,-0.98319,0.15999,0.35931,0.018309,-0.084774,0.92324,-0.036765,-0.44904,4
-0.10844,-0.9817,0.17005,0.34802,0.032591,-0.078357,0.92359,-0.03595,-0.44573,4
-0.10659,-0.97966,0.18002,0.34693,0.045842,-0.071019,0.92406,-0.03523,-0.44242,4
-0.10455,-0.97746,0.19024,0.3484,0.05647,-0.061098,0.92461,-0.034597,-0.43909,4
-0.10295,-0.9754,0.2008,0.35863,0.063575,-0.051511,0.92525,-0.034058,-0.4357,4
-0.10149,-0.97279,0.21156,0.38593,0.069153,-0.044424,0.92592,-0.033597,-0.43214,4
-0.099769,-0.97068,0.22291,0.41651,0.070134,-0.040062,0.92662,-0.033177,-0.42843,1
-0.09809,-0.96807,0.2348,0.44124,0.069958,-0.038984,0.92731,-0.032773,-0.4245,1
-0.09681,-0.96462,0.247,0.45711,0.07362,-0.034292,0.92801,-0.032412,-0.42039,1
-0.09547,-0.96088,0.25967,0.4744,0.076221,-0.029127,0.92872,-0.032115,-0.41617,1
-0.094387,-0.95738,0.27271,0.48539,0.076189,-0.022693,0.92943,-0.031875,-0.41192,1
-0.093616,-0.95433,0.28584,0.49042,0.073874,-0.016669,0.93015,-0.031685,-0.40765,1
-0.09286,-0.951,0.29924,0.49316,0.06898,-0.011604,0.93082,-0.031532,-0.40332,1
-0.09235,-0.94732,0.31239,0.49104,0.067084,-0.0060767,0.93147,-0.031419,-0.39896,1
-0.09234,-0.94365,0.32549,0.49013,0.067024,0.0034016,0.93208,-0.031383,-0.39459,1
-0.092691,-0.93892,0.33877,0.4949,0.06838,0.0077781,0.93269,-0.031411,-0.39019,1
-0.092674,-0.9337,0.35181,0.50285,0.07065,0.016832,0.9333,-0.031519,-0.38573,1
-0.093176,-0.92895,0.36483,0.50517,0.074517,0.02781,0.93391,-0.031729,-0.38123,1
-0.094271,-0.92482,0.37824,0.50599,0.072937,0.03735,0.93448,-0.032042,-0.37679,1
-0.095366,-0.92013,0.39158,0.5176,0.068853,0.041205,0.935,-0.032393,-0.37231,1
-0.096458,-0.91473,0.40505,0.53876,0.065824,0.038905,0.93548,-0.032736,-0.3677,1
-0.097857,-0.90826,0.41884,0.54985,0.064491,0.038658,0.93593,-0.033066,-0.36293,1
-0.099284,-0.90213,0.43256,0.54272,0.061401,0.044282,0.93637,-0.033425,-0.35816,1
-0.10054,-0.89583,0.4459,0.53772,0.056575,0.050385,0.93674,-0.033807,-0.35347,1
-0.10172,-0.88962,0.45893,0.52918,0.054536,0.056283,0.93706,-0.034202,-0.34888,1
-0.10324,-0.88319,0.47199,0.5236,0.056172,0.059974,0.93735,-0.034637,-0.34434,1
-0.10501,-0.87659,0.48467,0.5158,0.054191,0.062635,0.93762,-0.035106,-0.33984,1
-0.10648,-0.87101,0.49715,0.48746,0.043331,0.061756,0.93783,-0.035546,-0.33553,1
-0.10734,-0.86542,0.50974,0.49633,0.038606,0.057903,0.93795,-0.035912,-0.33132,1
-0.10862,-0.85949,0.52216,0.51482,0.037193,0.054292,0.93804,-0.036244,-0.32699,1
-0.10972,-0.85205,0.53426,0.53585,0.038961,0.053206,0.93811,-0.03657,-0.32241,1
-0.11095,-0.84359,0.54685,0.56382,0.046741,0.051849,0.93818,-0.036912,-0.31762,1
-0.11228,-0.83489,0.55974,0.58774,0.051949,0.045942,0.93832,-0.037269,-0.31264,1
-0.11315,-0.82574,0.57316,0.6138,0.060082,0.037801,0.93852,-0.037619,-0.30753,1
-0.1144,-0.81635,0.58682,0.63638,0.069383,0.028171,0.93882,-0.037977,-0.30229,1
-0.11544,-0.80613,0.60016,0.66528,0.08071,0.018526,0.93923,-0.038357,-0.29682,1
-0.11697,-0.7951,0.61429,0.68707,0.093286,0.010558,0.93978,-0.038766,-0.2911,1
-0.11829,-0.78348,0.62854,0.73353,0.10649,-0.0036817,0.94047,-0.039204,-0.28506,1
-0.11985,-0.77032,0.64367,0.78072,0.12007,-0.018487,0.94134,-0.03965,-0.27859,1
-0.12164,-0.7565,0.65928,0.81163,0.13504,-0.030166,0.94236,-0.040139,-0.27179,1
-0.12358,-0.74041,0.6752,0.83142,0.15017,-0.04355,0.94352,-0.040681,-0.26473,1
-0.12555,-0.72358,0.69087,0.85541,0.15768,-0.053397,0.9448,-0.041232,-0.25752,1
-0.12698,-0.70568,0.70637,0.86835,0.16619,-0.062032,0.94618,-0.041782,-0.25027,1
-0.12889,-0.68854,0.72185,0.8782,0.1747,-0.066213,0.94763,-0.042363,-0.24301,1
-0.13088,-0.67293,0.73742,0.86263,0.17754,-0.072571,0.94918,-0.04296,-0.23592,1
-0.13273,-0.65719,0.75209,0.83996,0.17996,-0.081511,0.95079,-0.043558,-0.22895,1
-0.13456,-0.64182,0.76595,0.81275,0.18159,-0.090453,0.95248,-0.044136,-0.22217,1
-0.13667,-0.62702,0.77962,0.76822,0.18143,-0.1013,0.95423,-0.044675,-0.21567,1
-0.13814,-0.61456,0.79293,0.69992,0.17127,-0.11126,0.95604,-0.045127,-0.20975,1
-0.13929,-0.60304,0.80466,0.6374,0.15836,-0.1153,0.95782,-0.045482,-0.20431,1
-0.14042,-0.5932,0.81573,0.56289,0.14191,-0.11845,0.95954,-0.045731,-0.1994,1
-0.1409,-0.58444,0.82533,0.4898,0.12912,-0.11961,0.9612,-0.045894,-0.19495,1
-0.14176,-0.5764,0.83362,0.41122,0.12077,-0.12002,0.9628,-0.046023,-0.19095,1
-0.14234,-0.5689,0.84084,0.34433,0.1121,-0.12034,0.96435,-0.046123,-0.18747,1
-0.14264,-0.56224,0.84726,0.28754,0.10113,-0.11883,0.96585,-0.046171,-0.18442,1
-0.14279,-0.55584,0.85252,0.22138,0.090167,-0.11817,0.9673,-0.046155,-0.18181,2
-0.14275,-0.5515,0.85731,0.16086,0.075337,-0.11189,0.96866,-0.046088,-0.17973,2
-0.14244,-0.54908,0.86092,0.077266,0.050926,-0.10731,0.96987,-0.045916,-0.17825,2
-0.14178,-0.54811,0.86344,0.0026163,0.022839,-0.10468,0.97091,-0.045592,-0.1774,2
-0.14028,-0.54794,0.86425,-0.062657,-0.004197,-0.10205,0.97175,-0.045099,-0.17707,2
-0.13827,-0.54959,0.86422,-0.13992,-0.02851,-0.096672,0.97241,-0.04446,-0.17738,2
-0.13579,-0.55348,0.86305,-0.22036,-0.050479,-0.085369,0.97288,-0.043718,-0.17836,2
-0.13342,-0.55873,0.86073,-0.29488,-0.071536,-0.074709,0.97316,-0.042899,-0.17997,2
-0.1305,-0.56469,0.85698,-0.35372,-0.089365,-0.06385,0.97326,-0.042017,-0.1821,2
-0.1274,-0.57249,0.85296,-0.39733,-0.1018,-0.053997,0.97321,-0.041074,-0.18468,2
-0.12483,-0.58056,0.84815,-0.44256,-0.10983,-0.045766,0.97306,-0.040122,-0.18755,2
-0.12161,-0.58878,0.84219,-0.48996,-0.125,-0.038191,0.97278,-0.039119,-0.19079,2
-0.11794,-0.59638,0.83553,-0.49693,-0.13431,-0.028868,0.97236,-0.038049,-0.19422,2
-0.11459,-0.60442,0.82916,-0.47494,-0.13832,-0.021048,0.97184,-0.036952,-0.19775,2
-0.1114,-0.61231,0.82197,-0.45692,-0.14095,-0.012043,0.97125,-0.035863,-0.20124,2
-0.10799,-0.62062,0.8151,-0.46724,-0.14592,-0.007529,0.97061,-0.03479,-0.20478,2
-0.10416,-0.63098,0.80851,-0.47299,-0.15317,-0.0097676,0.9699,-0.033653,-0.20853,2
-0.10056,-0.64043,0.8014,-0.46947,-0.15557,-0.012449,0.96918,-0.032477,-0.21224,2
-0.096468,-0.64991,0.79538,-0.4208,-0.14666,-0.012361,0.96846,-0.031298,-0.21581,2
-0.093587,-0.65725,0.78883,-0.41332,-0.13617,-0.0097887,0.9678,-0.030235,-0.21903,2
-0.090243,-0.66338,0.78249,-0.38717,-0.12722,-0.0081781,0.96717,-0.029244,-0.22201,2
-0.08693,-0.66912,0.7771,-0.34526,-0.12313,-0.0087308,0.96656,-0.028278,-0.22477,2
-0.083443,-0.67462,0.7717,-0.29766,-0.11864,-0.01295,0.96597,-0.027312,-0.22727,2
-0.080758,-0.67828,0.76677,-0.27697,-0.10848,-0.0093463,0.96542,-0.026404,-0.22942,2
-0.078354,-0.68045,0.76204,-0.24955,-0.096545,-0.0055027,0.96488,-0.025595,-0.23136,2
-0.076033,-0.6816,0.75758,-0.22303,-0.092051,-0.0020085,0.96435,-0.02485,-0.23318,2
-0.073328,-0.68371,0.75255,-0.16579,-0.086403,0.0027025,0.96383,-0.024109,-0.23493,2
-0.070983,-0.68676,0.74896,-0.16404,-0.079249,0.0053278,0.96334,-0.023431,-0.23667,2
-0.068991,-0.69163,0.74503,-0.16546,-0.077062,0.005262,0.96288,-0.022796,-0.23844,2
-0.066879,-0.69652,0.741,-0.18837,-0.0794,0.00027167,0.96244,-0.022157,-0.24031,2
-0.064892,-0.69973,0.73623,-0.19304,-0.076911,-0.0067343,0.96202,-0.021491,-0.24213,2
-0.062722,-0.70344,0.7318,-0.19291,-0.08164,-0.010027,0.9616,-0.020787,-0.24403,2
-0.059959,-0.70809,0.72719,-0.19474,-0.090296,-0.011067,0.96114,-0.020007,-0.24607,2
-0.057424,-0.71264,0.72235,-0.20344,-0.096722,-0.0095285,0.96062,-0.019184,-0.2482,2
-0.054786,-0.71572,0.71668,-0.17869,-0.092933,-0.0033606,0.96004,-0.018381,-0.25021,2
-0.052186,-0.71993,0.71194,-0.17226,-0.092033,-0.00152,0.95944,-0.01761,-0.25226,2
-0.049817,-0.72395,0.70701,-0.18187,-0.095708,-0.00109,0.95882,-0.016862,-0.25433,2
-0.047138,-0.728,0.70138,-0.18444,-0.099253,-0.0014214,0.95814,-0.016095,-0.25648,2
-0.044621,-0.7324,0.6961,-0.19405,-0.1049,2.008e-05,0.95742,-0.01532,-0.25871,2
-0.042421,-0.73617,0.6904,-0.20933,-0.11009,0.00015169,0.95667,-0.01453,-0.26093,2
-0.03952,-0.74108,0.68431,-0.22927,-0.11938,-0.0016806,0.95584,-0.01369,-0.26336,2
-0.036764,-0.74618,0.67797,-0.24509,-0.12921,-0.001302,0.95496,-0.012794,-0.26594,2
-0.033743,-0.75099,0.67094,-0.25558,-0.13271,0.00023809,0.954,-0.01185,-0.26862,2
-0.030625,-0.75677,0.66405,-0.24987,-0.13703,0.0037498,0.95297,-0.010919,-0.27144,2
-0.027421,-0.76215,0.65653,-0.23384,-0.13964,0.0087972,0.9519,-0.010009,-0.27426,2
-0.024334,-0.76833,0.64964,-0.22903,-0.13865,0.01429,0.9508,-0.0091315,-0.27712,2
-0.022051,-0.77349,0.64245,-0.20208,-0.13181,0.017538,0.94971,-0.0083166,-0.27983,2
-0.019284,-0.7787,0.63603,-0.18844,-0.12828,0.018427,0.94864,-0.0075425,-0.28249,2
-0.016715,-0.78399,0.62995,-0.18979,-0.12807,0.020328,0.94758,-0.0067993,-0.28512,2
-0.014454,-0.78933,0.62395,-0.1997,-0.13372,0.021014,0.94649,-0.0060578,-0.28777,2
-0.011982,-0.79349,0.61675,-0.20547,-0.13609,0.024651,0.94535,-0.0053195,-0.29039,2
-0.009456,-0.79878,0.61051,-0.18423,-0.13528,0.028819,0.94419,-0.0045889,-0.29304,2
-0.0083146,-0.80341,0.60373,-0.19265,-0.13287,0.036898,0.94305,-0.0039506,-0.2956,2
-0.0062709,-0.80897,0.59631,-0.20443,-0.13448,0.03707,0.94186,-0.003324,-0.2983,2
-0.0043058,-0.81512,0.58911,-0.22186,-0.13309,0.040052,0.94065,-0.0027212,-0.301,2
-0.0024858,-0.82153,0.58256,-0.25407,-0.13496,0.039581,0.93944,-0.0021524,-0.30375,2
-0.000407,-0.82667,0.5748,-0.21748,-0.12644,0.03805,0.93823,-0.0015819,-0.3064,2
0.00079064,-0.83147,0.5685,-0.21592,-0.11857,0.043786,0.93709,-0.0011159,-0.3088,2
0.0022801,-0.83603,0.56297,-0.20614,-0.10859,0.043859,0.936,-0.00072457,-0.31103,2
0.002951,-0.83843,0.5566,-0.22136,-0.10018,0.043835,0.93498,-0.00040718,-0.31309,2
0.0042862,-0.8421,0.55177,-0.20375,-0.10074,0.043854,0.93398,-8.9159e-05,-0.31515,4
0.0054784,-0.84687,0.54718,-0.19619,-0.098743,0.044049,0.933,0.00022552,-0.3171,4
0.0063317,-0.85148,0.54284,-0.21308,-0.093915,0.043332,0.93208,0.00049773,-0.3189,4
0.0064221,-0.85428,0.53848,-0.22717,-0.08401,0.045281,0.93123,0.00069295,-0.32051,4
0.0069012,-0.85741,0.53411,-0.23012,-0.078412,0.047705,0.93041,0.00081545,-0.32208,4
0.0071236,-0.86034,0.52992,-0.23135,-0.071543,0.047396,0.92966,0.00089271,-0.32358,4
0.0074162,-0.86449,0.526,-0.24129,-0.064914,0.046643,0.92896,0.00094147,-0.32509,4
0.0067122,-0.8675,0.52277,-0.27616,-0.055802,0.043851,0.92834,0.00093013,-0.32651,4
0.0064879,-0.87016,0.51819,-0.28527,-0.052386,0.039848,0.92776,0.00090595,-0.32794,4
0.0062461,-0.87174,0.51432,-0.28368,-0.048384,0.037188,0.9272,0.0008868,-0.3293,4
0.0062028,-0.87341,0.51055,-0.27245,-0.046911,0.036312,0.92665,0.00087448,-0.33064,4
0.0065934,-0.87487,0.50684,-0.24777,-0.049582,0.036652,0.92609,0.00087806,-0.33198,4
0.0073047,-0.8768,0.50312,-0.2141,-0.047133,0.039339,0.9255,0.00090342,-0.33329,4
0.0070967,-0.878,0.50009,-0.21192,-0.042187,0.042395,0.92497,0.00087683,-0.33453,4
0.0075896,-0.88021,0.49653,-0.20405,-0.03862,0.043293,0.92445,0.00082377,-0.33582,4
0.0075787,-0.88352,0.494,-0.21788,-0.036796,0.044062,0.92396,0.00075551,-0.33717,4
0.007227,-0.88645,0.49089,-0.24246,-0.044679,0.041343,0.92347,0.00068502,-0.33854,4
0.0071793,-0.8891,0.48653,-0.24424,-0.04275,0.040112,0.92296,0.00064501,-0.33995,4
0.0061906,-0.89108,0.48309,-0.24877,-0.036479,0.0405,0.92252,0.00055906,-0.34131,4
0.0058045,-0.89258,0.47879,-0.22429,-0.031023,0.040174,0.9221,0.00044894,-0.34267,4
0.0061803,-0.89468,0.47498,-0.21047,-0.031865,0.039111,0.92169,0.00036666,-0.34411,4
0.0059417,-0.89549,0.47073,-0.1865,-0.02891,0.041302,0.92131,0.00028679,-0.34549,4
0.0059823,-0.89651,0.46711,-0.16256,-0.027869,0.044692,0.92093,0.00019202,-0.34687,4
0.0061713,-0.89895,0.46311,-0.16029,-0.036496,0.04655,0.92053,8.906e-05,-0.34834,4
0.0055427,-0.90061,0.45897,-0.15272,-0.034331,0.047404,0.92014,7.3722e-07,-0.34973,4
0.0050976,-0.90217,0.45511,-0.145,-0.029206,0.049965,0.91975,-0.00010857,-0.35113,4
0.0049332,-0.90419,0.45172,-0.14641,-0.03005,0.051302,0.91937,-0.00024277,-0.35256,4
0.0051676,-0.90715,0.44852,-0.16931,-0.038116,0.055318,0.91895,-0.00037475,-0.35414,4
0.0045883,-0.90919,0.44421,-0.17782,-0.0464,0.058368,0.91848,-0.00051444,-0.35575,4
0.0041328,-0.91067,0.4391,-0.16974,-0.051436,0.064235,0.91794,-0.00065561,-0.35738,4
0.0034425,-0.91247,0.43393,-0.15455,-0.048108,0.069606,0.91739,-0.00083041,-0.35899,4
0.0022904,-0.91506,0.42932,-0.15441,-0.045571,0.068475,0.91686,-0.0010501,-0.36061,4
0.0011265,-0.91625,0.42325,-0.18576,-0.050931,0.067607,0.91632,-0.00127,-0.36224,4
0.0012266,-0.91915,0.41776,-0.19158,-0.057688,0.064532,0.9157,-0.001417,-0.36406,4
0.00055379,-0.92192,0.4128,-0.20076,-0.061596,0.065529,0.91508,-0.0015697,-0.36587,4
0.00032059,-0.92429,0.4079,-0.19835,-0.063404,0.066409,0.91443,-0.0017236,-0.36768,4
5.0279e-05,-0.92697,0.40298,-0.18535,-0.0622,0.067604,0.9138,-0.0018945,-0.36943,4
-0.0006281,-0.93093,0.39942,-0.22055,-0.068624,0.068804,0.91319,-0.0020813,-0.3712,4
-0.0011335,-0.93379,0.39492,-0.22728,-0.070426,0.065803,0.91256,-0.0022398,-0.37293,4
-0.0020791,-0.9365,0.3907,-0.2393,-0.070279,0.068853,0.91193,-0.0024204,-0.37466,4
-0.00296,-0.93944,0.38639,-0.26366,-0.075814,0.074117,0.91128,-0.0026557,-0.37641,4
-0.0037987,-0.94266,0.38137,-0.28558,-0.0773,0.077149,0.91059,-0.0029204,-0.37821,4
-0.0050374,-0.94495,0.37593,-0.304,-0.076875,0.078233,0.90991,-0.0032105,-0.37995,4
-0.0063281,-0.94673,0.37002,-0.32183,-0.077522,0.080687,0.90921,-0.0035333,-0.38175,4
-0.0077503,-0.94802,0.36389,-0.32481,-0.075481,0.080601,0.90849,-0.0038782,-0.38357,4
-0.0089702,-0.94865,0.3579,-0.32263,-0.073485,0.080871,0.90776,-0.0042349,-0.38535,4
-0.010099,-0.94973,0.35198,-0.32388,-0.075694,0.082561,0.907,-0.0046074,-0.38718,4
-0.011552,-0.9508,0.34589,-0.32259,-0.074298,0.0824,0.90624,-0.0049911,-0.38899,4
-0.012509,-0.95331,0.34016,-0.33349,-0.079596,0.081493,0.90543,-0.0053734,-0.39096,4
-0.013606,-0.955,0.33448,-0.32714,-0.078369,0.080422,0.90463,-0.0057547,-0.39291,4
-0.014642,-0.95684,0.32876,-0.32064,-0.081586,0.080316,0.90381,-0.0061336,-0.3949,4
-0.015546,-0.95824,0.32261,-0.30983,-0.081761,0.079081,0.903,-0.0064904,-0.3969,4
-0.016514,-0.9602,0.31642,-0.31192,-0.081157,0.078651,0.90221,-0.0068431,-0.39893,4
-0.01812,-0.96167,0.31041,-0.32728,-0.078205,0.076038,0.90146,-0.0071974,-0.40097,4
-0.019483,-0.96389,0.30379,-0.32707,-0.073964,0.071978,0.90072,-0.0075534,-0.40302,4
-0.02119,-0.96501,0.29785,-0.32088,-0.068749,0.070398,0.90002,-0.0079214,-0.40495,4
-0.022782,-0.96673,0.29148,-0.32544,-0.071314,0.063057,0.89936,-0.0082717,-0.40689,4
-0.024085,-0.96808,0.28493,-0.31267,-0.062429,0.059786,0.89873,-0.0085826,-0.40882,4
-0.025218,-0.96933,0.27941,-0.29786,-0.054779,0.058388,0.89816,-0.0089121,-0.41068,4
-0.025714,-0.9701,0.27312,-0.27592,-0.053007,0.055737,0.89762,-0.0092259,-0.41249,4
-0.026549,-0.97073,0.2678,-0.27101,-0.052796,0.052998,0.8971,-0.0095027,-0.41424,4
-0.027194,-0.97134,0.26193,-0.25865,-0.051165,0.051004,0.89659,-0.0097612,-0.41596,4
-0.028089,-0.97199,0.25685,-0.25227,-0.047263,0.049994,0.89612,-0.010009,-0.41758,4
-0.029065,-0.97301,0.25151,-0.24465,-0.043109,0.049903,0.89566,-0.010262,-0.41916,4
-0.029896,-0.97352,0.24704,-0.22419,-0.036617,0.050236,0.89524,-0.010518,-0.42062,4
-0.030618,-0.97344,0.24244,-0.19244,-0.028814,0.050393,0.89486,-0.010782,-0.42195,4
-0.031311,-0.97442,0.23869,-0.17554,-0.027251,0.05029,0.89452,-0.011052,-0.42322,4
-0.032119,-0.97457,0.23505,-0.14672,-0.023045,0.051114,0.89423,-0.011308,-0.42438,4
-0.033209,-0.97486,0.23156,-0.12431,-0.017775,0.047275,0.89398,-0.011542,-0.42541,4
-0.034073,-0.97515,0.2283,-0.10675,-0.014614,0.042873,0.89376,-0.011742,-0.42636,4
-0.034865,-0.97644,0.22553,-0.10182,-0.010076,0.03468,0.89359,-0.011908,-0.42722,4
-0.035109,-0.97788,0.22339,-0.098718,-0.0077673,0.026898,0.89345,-0.012012,-0.42801,4
-0.035164,-0.97817,0.22141,-0.094415,-0.0078155,0.023436,0.89333,-0.012072,-0.42872,4
-0.035082,-0.97866,0.22006,-0.088512,-0.0085644,0.021197,0.89322,-0.012114,-0.42937,4
-0.034897,-0.97872,0.21859,-0.068144,-0.0095501,0.020342,0.89313,-0.012136,-0.42994,4
-0.034192,-0.97971,0.21811,-0.049014,-0.012801,0.022026,0.89304,-0.01213,-0.43047,4
-0.034296,-0.97992,0.21652,-0.027541,-0.010636,0.021733,0.89299,-0.012119,-0.43085,4
-0.034713,-0.97985,0.21539,-0.025425,-0.0098262,0.021356,0.89296,-0.012113,-0.43116,4
-0.034971,-0.97968,0.21451,-0.024613,-0.010015,0.023715,0.8929,-0.01212,-0.43144,4
-0.035097,-0.97958,0.2135,-0.017961,-0.0073183,0.024237,0.89285,-0.012154,-0.43171,4
-0.035008,-0.97881,0.21232,-0.0018736,-0.0061504,0.02255,0.8928,-0.012181,-0.43185,4
-0.034763,-0.97842,0.21153,0.0098571,-0.0045905,0.019359,0.89275,-0.012191,-0.43194,4
-0.034528,-0.97769,0.21109,0.014892,-0.0028791,0.016295,0.89273,-0.012186,-0.43194,4
-0.034016,-0.97657,0.21061,0.028943,-0.0037095,0.01217,0.89269,-0.012155,-0.43193,4
-0.033781,-0.97494,0.21076,0.034244,-0.0025921,0.0091982,0.89267,-0.012092,-0.43185,4
-0.033023,-0.9744,0.21097,0.034596,-0.0076252,0.0087294,0.89263,-0.012019,-0.4318,4
-0.03229,-0.97549,0.2111,0.030552,-0.013311,0.0099985,0.89254,-0.011934,-0.43183,4
-0.032185,-0.97651,0.21179,0.026292,-0.011459,0.010175,0.89247,-0.011858,-0.43181,4
-0.031832,-0.97648,0.21269,0.031116,-0.010553,0.0089715,0.89242,-0.011798,-0.43171,4
-0.031519,-0.97632,0.21324,0.037509,-0.0076785,0.0091202,0.89239,-0.011743,-0.43153,4
-0.031342,-0.97591,0.21444,0.040852,-0.003779,0.0098201,0.8924,-0.011695,-0.43125,4
-0.031141,-0.97574,0.21531,0.028816,-0.0036751,0.010963,0.8924,-0.011673,-0.43096,4
-0.031256,-0.97566,0.21636,0.023782,-0.00052258,0.009717,0.89241,-0.011668,-0.43063,4
-0.031593,-0.97558,0.21753,0.021112,0.0035831,0.0073073,0.89244,-0.011673,-0.43025,4
-0.031608,-0.97527,0.21844,0.02765,0.0083651,0.005937,0.89248,-0.011685,-0.42977,4
-0.031365,-0.97456,0.22012,0.035434,0.011309,0.0068122,0.89254,-0.011703,-0.42924,4
-0.031607,-0.97471,0.22186,0.029202,0.013077,0.0067128,0.89263,-0.011727,-0.42873,4
-0.031049,-0.97357,0.22322,0.055624,0.019676,0.0067105,0.89274,-0.011751,-0.42815,4
-0.031016,-0.97266,0.22536,0.060152,0.022684,0.0098561,0.8929,-0.011794,-0.42753,4
-0.030866,-0.97253,0.22709,0.066584,0.026303,0.012178,0.89306,-0.011848,-0.4269,4
-0.030957,-0.97245,0.22956,0.076007,0.031708,0.012808,0.89326,-0.011918,-0.42615,4
-0.030891,-0.97216,0.23217,0.088109,0.034914,0.012259,0.89349,-0.011991,-0.4253,4
-0.031444,-0.97161,0.23547,0.096255,0.038239,0.01206,0.89375,-0.012058,-0.42435,4
-0.031504,-0.97097,0.23851,0.10533,0.040673,0.01261,0.89403,-0.012131,-0.42333,4
-0.031578,-0.9701,0.24185,0.12623,0.046464,0.011868,0.89435,-0.012202,-0.42221,4
-0.032079,-0.96905,0.24542,0.13787,0.053488,0.010403,0.89471,-0.012269,-0.42101,4
-0.032046,-0.9684,0.24969,0.14338,0.053123,0.0079222,0.89509,-0.01233,-0.4198,4
-0.032213,-0.96827,0.25383,0.14283,0.048323,0.0037326,0.89547,-0.012335,-0.41864,4
-0.032135,-0.96802,0.25752,0.14538,0.050501,0.00011288,0.89584,-0.012295,-0.41741,4
-0.031913,-0.96734,0.26163,0.14743,0.052398,-0.00069739,0.89624,-0.012253,-0.4161,4
-0.0323,-0.96708,0.26601,0.13677,0.05513,-0.0023275,0.89666,-0.012217,-0.41478,4
-0.032136,-0.96633,0.27066,0.13576,0.055876,0.00016064,0.89709,-0.012182,-0.41344,4
-0.032175,-0.96545,0.27501,0.13449,0.055648,0.004685,0.89752,-0.01218,-0.41208,4
-0.032388,-0.96513,0.27924,0.12908,0.0529,0.0062039,0.89794,-0.0122,-0.41075,4
-0.032814,-0.96551,0.28392,0.13992,0.053385,0.0085683,0.89836,-0.012232,-0.4094,4
-0.033836,-0.96531,0.28818,0.10115,0.051433,0.010938,0.89881,-0.012297,-0.40805,4
-0.034496,-0.9641,0.29109,0.093436,0.053168,0.0085701,0.89923,-0.012377,-0.40678,4
-0.034904,-0.9625,0.29476,0.090119,0.053234,0.0074205,0.89964,-0.012462,-0.40549,4
-0.035141,-0.96071,0.29839,0.092939,0.051807,0.0068637,0.90003,-0.012538,-0.40419,4
-0.035513,-0.95907,0.30167,0.091276,0.046523,0.0020999,0.9004,-0.012588,-0.40291,4
-0.035491,-0.95608,0.3047,0.096277,0.045566,-0.001713,0.90076,-0.01259,-0.40163,4
-0.035199,-0.95442,0.30814,0.10734,0.040949,0.0022032,0.90108,-0.012593,-0.40047,4
-0.034993,-0.9523,0.31159,0.11421,0.038257,0.0018296,0.9014,-0.01258,-0.39929,4
-0.03456,-0.95027,0.31506,0.12165,0.03674,0.0024904,0.9017,-0.012553,-0.39816,4
-0.034213,-0.94959,0.31888,0.11064,0.030797,0.0059771,0.90198,-0.012533,-0.39712,4
-0.034083,-0.94915,0.32207,0.11687,0.028012,0.0083416,0.90223,-0.012515,-0.39609,4
-0.033974,-0.94914,0.32521,0.10685,0.027365,0.014005,0.90249,-0.012524,-0.39511,4
-0.034767,-0.94769,0.32854,0.10511,0.032858,0.015817,0.90277,-0.01259,-0.39403,4
-0.035112,-0.94617,0.33144,0.092884,0.030137,0.014239,0.90303,-0.012669,-0.393,4
-0.035343,-0.94535,0.33405,0.089524,0.030766,0.016841,0.90327,-0.012748,-0.39207,4
-0.035874,-0.94409,0.3369,0.082946,0.031186,0.017166,0.9035,-0.012858,-0.3911,4
-0.036181,-0.94355,0.33936,0.075594,0.02761,0.017898,0.9037,-0.012976,-0.39022,4
-0.036806,-0.94241,0.34181,0.080228,0.031334,0.015714,0.90391,-0.013084,-0.3893,4
-0.037062,-0.94103,0.34463,0.08756,0.030353,0.0162,0.90411,-0.013192,-0.38838,4
-0.036983,-0.93954,0.34744,0.1047,0.030345,0.017709,0.90431,-0.01328,-0.38741,4
-0.037458,-0.93796,0.35047,0.096825,0.029827,0.020719,0.90452,-0.013396,-0.38642,4
-0.037622,-0.93688,0.35324,0.11652,0.033218,0.023619,0.90472,-0.013534,-0.38535,4
-0.037724,-0.93593,0.35677,0.13435,0.032612,0.02219,0.90494,-0.013681,-0.38423,4
-0.038449,-0.93484,0.36072,0.1289,0.03068,0.023885,0.90516,-0.013826,-0.38304,4
-0.038524,-0.93389,0.36447,0.14098,0.031162,0.023367,0.90535,-0.013968,-0.3818,4
-0.038818,-0.93239,0.36886,0.16009,0.032389,0.022595,0.90556,-0.014105,-0.38041,4
-0.039364,-0.93029,0.3735,0.17232,0.035256,0.022319,0.90579,-0.014254,-0.37888,4
-0.039882,-0.92824,0.37829,0.18182,0.037841,0.023395,0.90602,-0.014422,-0.37726,4
-0.040208,-0.92652,0.38338,0.19747,0.041724,0.026727,0.90626,-0.014613,-0.37556,4
-0.04108,-0.9242,0.38886,0.20662,0.046956,0.02784,0.90655,-0.014837,-0.37377,4
-0.041804,-0.92229,0.3944,0.2059,0.048858,0.030815,0.90684,-0.015091,-0.37195,4
-0.042873,-0.92007,0.40035,0.21635,0.050158,0.030519,0.90714,-0.015358,-0.37006,4
-0.04371,-0.91884,0.40586,0.21515,0.051141,0.034878,0.90744,-0.015638,-0.36817,4
-0.044667,-0.91626,0.41122,0.22489,0.059312,0.037611,0.90776,-0.01596,-0.36612,4
-0.046099,-0.91407,0.41732,0.22161,0.062807,0.038987,0.90812,-0.016335,-0.36401,4
-0.047591,-0.91153,0.42345,0.22112,0.065431,0.038598,0.9085,-0.016732,-0.36189,4
-0.048589,-0.90915,0.42968,0.22998,0.066488,0.041363,0.90887,-0.017155,-0.35971,4
-0.050278,-0.90594,0.43601,0.233,0.0661,0.042146,0.90925,-0.017594,-0.35749,4
-0.051849,-0.90337,0.44238,0.24112,0.065378,0.044369,0.90961,-0.018046,-0.35528,4
-0.053901,-0.90034,0.44872,0.23833,0.068797,0.04668,0.90998,-0.01853,-0.35302,4
-0.05577,-0.89645,0.45442,0.22172,0.066621,0.047654,0.91034,-0.019036,-0.35082,4
-0.057084,-0.89265,0.46027,0.2536,0.068501,0.044456,0.91068,-0.019524,-0.34861,4
-0.059062,-0.88886,0.46677,0.26991,0.071748,0.048035,0.91104,-0.020033,-0.34621,1
-0.060866,-0.88535,0.47369,0.27835,0.072385,0.050444,0.91139,-0.02057,-0.34374,1
-0.062931,-0.88181,0.48067,0.28125,0.070455,0.049442,0.91173,-0.021111,-0.34126,1
-0.064182,-0.87761,0.48733,0.29455,0.072195,0.049333,0.91206,-0.021632,-0.33877,1
-0.065622,-0.87447,0.4947,0.29784,0.071351,0.053585,0.91239,-0.022172,-0.33631,1
-0.06702,-0.87108,0.50184,0.2926,0.073202,0.054249,0.91274,-0.022725,-0.33382,1
-0.068757,-0.86779,0.50881,0.28273,0.071512,0.05463,0.91307,-0.023276,-0.33143,1
-0.070661,-0.86473,0.51539,0.28792,0.069179,0.057186,0.91338,-0.023831,-0.32904,1
-0.072866,-0.86144,0.52202,0.28563,0.070782,0.058982,0.91368,-0.024409,-0.32662,1
-0.074786,-0.85802,0.52885,0.27359,0.069296,0.059865,0.91396,-0.025011,-0.32421,1
-0.077126,-0.85407,0.5354,0.26762,0.068886,0.057652,0.91422,-0.02562,-0.32177,1
-0.079072,-0.85009,0.54177,0.25572,0.064962,0.054323,0.91445,-0.026209,-0.31941,1
-0.080642,-0.84667,0.54808,0.24574,0.06352,0.055133,0.91467,-0.026783,-0.31713,1
-0.082439,-0.84324,0.55465,0.23714,0.061276,0.05389,0.91488,-0.027344,-0.31486,1
-0.084241,-0.84021,0.56101,0.23373,0.055946,0.054391,0.91504,-0.02788,-0.31268,1
-0.085928,-0.83628,0.56677,0.23812,0.054079,0.055811,0.91518,-0.028403,-0.31048,1
-0.087309,-0.83253,0.57278,0.24706,0.050426,0.05818,0.91529,-0.028925,-0.30826,1
-0.088838,-0.82888,0.57849,0.24723,0.04934,0.059223,0.91537,-0.029438,-0.30604,1
-0.090725,-0.82516,0.58427,0.23189,0.049745,0.061554,0.91545,-0.029973,-0.30388,1
-0.092041,-0.82205,0.58997,0.24105,0.049258,0.06454,0.9155,-0.030519,-0.30182,1
-0.093912,-0.81831,0.59576,0.2286,0.044402,0.063964,0.91553,-0.031053,-0.29978,1
-0.095639,-0.81417,0.60079,0.22992,0.042913,0.07133,0.91549,-0.031597,-0.29773,1
-0.097187,-0.81081,0.60597,0.22006,0.041339,0.073647,0.91541,-0.032152,-0.29577,1
-0.0989,-0.80747,0.61105,0.22424,0.040753,0.073243,0.91531,-0.03271,-0.2938,1
-0.10076,-0.80378,0.61633,0.21658,0.039849,0.067102,0.91524,-0.033246,-0.29176,1
-0.1023,-0.80038,0.62142,0.21576,0.036052,0.065086,0.91517,-0.033741,-0.28977,1
-0.10359,-0.79679,0.6266,0.22337,0.030376,0.069083,0.91506,-0.034198,-0.28776,1
-0.10525,-0.79246,0.6314,0.23837,0.031982,0.060253,0.91496,-0.034635,-0.2856,1
-0.10623,-0.78783,0.63663,0.25762,0.030818,0.055083,0.91488,-0.035023,-0.28329,1
-0.10762,-0.78267,0.64263,0.27739,0.033503,0.045373,0.91485,-0.035382,-0.28081,1
-0.10828,-0.77775,0.64818,0.28222,0.035285,0.038262,0.91487,-0.035708,-0.27826,1
-0.10931,-0.7714,0.6543,0.29981,0.038075,0.029965,0.91494,-0.036004,-0.2756,1
-0.11024,-0.76501,0.66086,0.3129,0.040119,0.023387,0.91505,-0.036268,-0.27282,1
-0.11081,-0.75829,0.6675,0.32858,0.041076,0.019229,0.91519,-0.03651,-0.27,1
-0.11157,-0.75198,0.67396,0.34307,0.040555,0.014386,0.91536,-0.036729,-0.26711,1
-0.11241,-0.7451,0.68086,0.35657,0.041742,0.0095078,0.91556,-0.036907,-0.26413,1
-0.11279,-0.73919,0.68804,0.36399,0.039878,0.0068839,0.91579,-0.037063,-0.26108,1
-0.11362,-0.73211,0.69496,0.36401,0.041009,0.0017719,0.91606,-0.037195,-0.25793,1
-0.1141,-0.7255,0.70254,0.37254,0.040635,-0.0015043,0.91635,-0.037294,-0.25474,1
-0.11439,-0.71821,0.71003,0.37836,0.045608,-0.0057355,0.91669,-0.03739,-0.25146,1
-0.11506,-0.71116,0.71754,0.38593,0.044617,-0.0064322,0.91706,-0.037505,-0.24809,1
-0.11531,-0.70359,0.72511,0.37809,0.041786,-0.0081668,0.91744,-0.037581,-0.24474,1
-0.11526,-0.69589,0.73233,0.36743,0.03893,-0.011731,0.91781,-0.037616,-0.24148,1
-0.11537,-0.68868,0.73927,0.35398,0.039128,-0.013705,0.91818,-0.037636,-0.23833,1
-0.11549,-0.68252,0.74693,0.33282,0.037415,-0.012911,0.91857,-0.037671,-0.23531,1
-0.11552,-0.67588,0.75363,0.32888,0.029695,-0.01486,0.91892,-0.037662,-0.23234,1
-0.11548,-0.66896,0.75987,0.3172,0.025048,-0.015287,0.91924,-0.03761,-0.22942,1
-0.11535,-0.66265,0.76633,0.30677,0.023883,-0.011684,0.91953,-0.037563,-0.22659,1
-0.11524,-0.65662,0.77235,0.28101,0.021858,-0.012142,0.91981,-0.037514,-0.2239,1
-0.11512,-0.65057,0.7779,0.25875,0.018916,-0.012789,0.92007,-0.037441,-0.2214,1
-0.11484,-0.64516,0.78264,0.23748,0.014175,-0.011529,0.92029,-0.037341,-0.21914,1
-0.1142,-0.63996,0.78678,0.22074,0.010193,-0.0092037,0.92047,-0.037216,-0.21709,2
-0.11408,-0.63582,0.79095,0.20063,0.0092656,-0.0044099,0.92063,-0.037098,-0.21527,2
-0.11376,-0.63221,0.79469,0.18909,0.0080513,-0.001806,0.92075,-0.036985,-0.21362,2
-0.11368,-0.62906,0.79745,0.16395,0.0047688,0.0032268,0.92078,-0.036931,-0.21229,2
-0.1136,-0.62622,0.7999,0.13895,0.00163,0.0082787,0.92079,-0.036876,-0.21109,2
-0.11352,-0.62369,0.80203,0.11438,-0.0013222,0.013258,0.92077,-0.03682,-0.21004,2
-0.11344,-0.62145,0.80387,0.090535,-0.0040447,0.018074,0.92073,-0.036763,-0.20911,2
-0.11336,-0.6195,0.80544,0.06771,-0.0064945,0.022635,0.92066,-0.036705,-0.20831,2
-0.11328,-0.61782,0.80675,0.0462,-0.0086286,0.026849,0.92057,-0.036647,-0.20763,2
-0.1132,-0.61639,0.80781,0.026299,-0.010404,0.030625,0.92047,-0.036588,-0.20706,2
-0.11311,-0.61522,0.80864,0.0083001,-0.011778,0.033871,0.92035,-0.036528,-0.20661,2
-0.11302,-0.61429,0.80925,-0.0075009,-0.012706,0.036496,0.92021,-0.036468,-0.20625,2
-0.11292,-0.61358,0.80967,-0.02081,-0.013147,0.038408,0.92005,-0.036408,-0.206,2
-0.11282,-0.61309,0.8099,-0.031333,-0.013057,0.039516,0.91988,-0.036347,-0.20584,2
-0.11272,-0.6128,0.80996,-0.038776,-0.012393,0.039729,0.9197,-0.036287,-0.20577,2
-0.11261,-0.61271,0.80988,-0.042844,-0.011113,0.038954,0.9195,-0.036226,-0.20578,2
-0.11249,-0.6128,0.80965,-0.043244,-0.0091719,0.037101,0.9193,-0.036165,-0.20586,2
-0.11237,-0.61306,0.80931,-0.039679,-0.0065282,0.034078,0.91909,-0.036104,-0.20602,2
-0.11224,-0.61348,0.80886,-0.031857,-0.0031384,0.029793,0.91887,-0.036043,-0.20625,2
-0.11211,-0.61406,0.80832,-0.019483,0.0010404,0.024155,0.91864,-0.035983,-0.20654,2
-0.11196,-0.61477,0.80771,-0.002263,0.0060512,0.017073,0.91841,-0.035922,-0.20688,2
-0.11181,-0.61561,0.80703,0.020098,0.011937,0.0084546,0.91817,-0.035863,-0.20728,2
-0.11164,-0.61656,0.80632,0.047894,0.018741,-0.0017911,0.91794,-0.035803,-0.20772,2
